-48485.49,-62296.37,-96268.00,-96316.21,-94033.20,-59951.20,12016.10
-48379.43,-62232.04,-96222.34,-96303.09,-94030.03,-59946.97,12018.78
-48422.41,-62273.52,-96285.32,-96327.19,-94053.21,-59963.27,12018.11
-48530.73,-62341.74,-96335.14,-96341.63,-94060.41,-59966.87,12022.47
-48510.97,-62321.22,-96295.58,-96328.33,-94053.41,-59965.41,12024.54
-48392.89,-62243.88,-96231.16,-96305.08,-94042.66,-59954.17,12026.62
-48397.89,-62257.41,-96273.50,-96325.09,-94056.52,-59972.21,12026.65
-48514.95,-62333.94,-96339.23,-96351.88,-94068.01,-59986.38,12032.64
-48522.66,-62330.14,-96306.91,-96340.42,-94056.83,-59974.29,12036.32
-48409.54,-62254.39,-96234.34,-96313.75,-94039.59,-59959.83,12037.22
-48378.18,-62242.99,-96251.99,-96323.25,-94046.98,-59969.41,12042.09
-48501.29,-62331.21,-96337.40,-96358.77,-94067.58,-59993.27,12044.01
-48545.62,-62353.90,-96328.84,-96359.87,-94067.83,-59996.26,12044.04
-48431.98,-62272.09,-96246.81,-96317.69,-94041.50,-59955.42,12045.65
-48371.41,-62243.73,-96245.40,-96319.20,-94047.63,-59963.02,12047.68
-48480.53,-62315.57,-96330.20,-96349.74,-94065.16,-59989.71,12050.79
-48543.09,-62346.97,-96333.71,-96344.76,-94058.80,-59980.08,12051.34
-48459.72,-62285.14,-96264.69,-96317.22,-94043.64,-59965.26,12052.82
-48376.80,-62234.72,-96242.49,-96314.58,-94046.02,-59975.16,12057.80
-48470.23,-62303.61,-96322.41,-96346.63,-94064.90,-59996.10,12060.24
-48548.75,-62348.40,-96342.36,-96346.74,-94058.51,-59993.89,12058.25
-48477.69,-62294.82,-96272.18,-96315.66,-94041.99,-59976.57,12061.76
-48369.53,-62229.36,-96227.14,-96304.39,-94042.93,-59971.34,12064.82
-48435.56,-62283.04,-96304.09,-96334.48,-94067.73,-59985.73,12068.69
-48542.11,-62347.71,-96346.16,-96347.28,-94074.42,-59988.97,12069.03
-48501.20,-62313.20,-96286.93,-96325.48,-94059.85,-59976.86,12071.04
-48384.35,-62240.51,-96227.79,-96311.90,-94052.00,-59974.42,12072.24
-48415.84,-62275.18,-96292.14,-96340.42,-94071.54,-60002.29,12071.53
-48534.51,-62353.21,-96354.86,-96358.66,-94077.13,-59999.99,12071.26
-48529.03,-62335.08,-96315.25,-96342.54,-94063.24,-59986.63,12070.34
-48402.07,-62254.95,-96238.36,-96312.79,-94045.90,-59969.19,12075.44
-48393.92,-62259.64,-96271.53,-96322.73,-94053.03,-59971.11,12084.22
-48527.80,-62349.21,-96353.34,-96354.37,-94069.66,-59993.13,12085.03
-48543.83,-62348.85,-96317.89,-96339.79,-94053.81,-59988.08,12085.39
-48430.93,-62275.71,-96245.65,-96322.18,-94047.09,-59985.96,12087.78
-48397.40,-62261.03,-96267.33,-96331.79,-94054.41,-59979.77,12091.67
-48506.59,-62332.62,-96335.61,-96354.37,-94062.30,-59994.25,12091.58
-48543.83,-62344.33,-96318.67,-96343.88,-94051.51,-59985.51,12094.15
-48431.02,-62266.08,-96233.84,-96309.17,-94027.95,-59964.83,12099.36
-48361.55,-62232.44,-96228.77,-96316.68,-94037.49,-59984.68,12100.99
-48466.07,-62306.31,-96314.70,-96344.76,-94055.49,-59997.31,12101.44
-48529.14,-62338.36,-96312.66,-96344.93,-94050.80,-59998.50,12099.47
-48448.23,-62282.48,-96245.65,-96324.75,-94044.54,-59990.98,12104.43
-48362.11,-62232.69,-96223.90,-96317.11,-94042.37,-59985.84,12110.08
-48442.53,-62286.40,-96293.10,-96341.78,-94059.29,-59997.46,12113.19
-48537.50,-62343.24,-96324.51,-96353.09,-94064.77,-60004.80,12114.49
-48476.04,-62295.85,-96259.66,-96328.62,-94052.78,-59988.50,12117.80
-48373.00,-62236.57,-96221.38,-96317.84,-94055.06,-59983.54,12117.57
-48425.63,-62283.60,-96290.10,-96341.85,-94070.82,-60004.66,12119.23
-48541.93,-62357.25,-96346.81,-96357.72,-94077.91,-60015.55,12123.38
-48506.50,-62325.18,-96288.92,-96337.18,-94057.97,-60001.04,12127.92
-48383.32,-62245.79,-96225.55,-96315.54,-94042.59,-59987.86,12129.60
-48407.08,-62270.32,-96281.09,-96333.38,-94055.42,-59996.95,12134.61
-48525.52,-62346.57,-96339.23,-96352.91,-94066.77,-60007.12,12139.70
-48519.38,-62334.01,-96300.72,-96340.55,-94060.49,-59998.70,12135.16
-48400.33,-62255.04,-96232.10,-96314.31,-94046.23,-59985.96,12133.26
-48387.79,-62255.75,-96260.29,-96324.59,-94052.49,-59994.29,12136.39
-48497.83,-62325.25,-96320.26,-96338.79,-94053.95,-59996.98,12143.34
-48517.81,-62324.17,-96294.15,-96324.33,-94037.05,-59990.16,12145.78
-48417.45,-62256.67,-96221.20,-96299.90,-94017.55,-59960.18,12140.26
-48382.96,-62252.04,-96237.63,-96322.36,-94039.98,-59983.00,12137.33
-48509.34,-62338.28,-96337.13,-96366.03,-94070.91,-60019.73,12134.00
-48544.46,-62346.66,-96318.72,-96349.80,-94051.27,-60009.78,12139.52
-48443.14,-62273.34,-96240.88,-96318.34,-94031.98,-59989.42,12147.97
-48371.07,-62237.18,-96229.89,-96322.02,-94045.41,-59999.52,12148.42
-48467.12,-62309.53,-96312.39,-96353.70,-94068.77,-60023.60,12150.85
-48532.65,-62344.31,-96319.19,-96353.27,-94063.42,-60027.06,12154.92
-48443.07,-62276.72,-96237.22,-96316.77,-94041.45,-59996.24,12154.19
-48349.46,-62218.52,-96204.38,-96298.51,-94033.20,-59987.77,12144.57
-48431.11,-62283.38,-96277.16,-96333.02,-94055.20,-60008.66,12131.50
-48528.50,-62342.66,-96316.44,-96349.25,-94064.23,-60016.53,12131.41
-48477.56,-62302.78,-96260.89,-96325.76,-94051.69,-60002.16,12144.93
-48383.01,-62251.21,-96233.13,-96323.72,-94062.48,-60009.71,12156.38
-48433.52,-62294.00,-96298.89,-96349.83,-94077.20,-60018.59,12170.90
-48546.91,-62361.01,-96353.31,-96365.95,-94081.46,-60020.33,12187.04
-48517.37,-62329.22,-96295.70,-96338.92,-94061.19,-60009.40,12198.44
-48399.66,-62255.20,-96228.03,-96318.72,-94047.06,-60006.23,12206.40
-48421.97,-62282.11,-96282.35,-96339.52,-94063.98,-60025.25,12208.21
-48535.27,-62345.36,-96336.71,-96355.23,-94070.80,-60029.83,12207.72
-48530.80,-62331.32,-96295.23,-96334.18,-94054.44,-60005.07,12209.13
-48412.31,-62252.20,-96224.05,-96308.19,-94037.88,-59987.95,12208.25
-48392.22,-62250.70,-96253.54,-96322.31,-94053.45,-60000.26,12211.03
-48512.94,-62333.63,-96335.66,-96350.99,-94069.55,-60019.68,12213.15
-48536.52,-62338.52,-96312.95,-96341.47,-94057.61,-60008.69,12204.05
-48438.33,-62277.03,-96251.33,-96330.61,-94053.63,-60009.20,12182.84
-48395.57,-62260.43,-96266.57,-96347.77,-94064.99,-60026.30,12162.32
-48509.54,-62336.09,-96345.90,-96373.88,-94081.08,-60037.88,12148.13
-48540.70,-62337.88,-96315.63,-96347.64,-94053.43,-60015.57,12090.26
-48416.61,-62240.49,-96207.67,-96291.80,-94008.77,-59980.73,11964.13
-48310.30,-62167.46,-96161.34,-96262.70,-93982.91,-59959.80,11865.49
-48378.79,-62208.08,-96210.22,-96265.14,-93973.48,-59953.57,11810.28
-48406.93,-62201.86,-96177.74,-96218.98,-93924.06,-59901.87,11872.71
-48297.80,-62113.84,-96073.16,-96157.42,-93871.83,-59852.58,11963.23
-48221.74,-62075.15,-96064.60,-96176.29,-93894.94,-59881.48,12069.90
-48320.00,-62159.39,-96168.73,-96227.50,-93940.29,-59907.39,12224.64
-48434.84,-62236.17,-96224.37,-96254.21,-93960.13,-59925.81,12375.65
-48408.18,-62222.09,-96193.45,-96256.87,-93973.93,-59944.00,12433.83
-48309.76,-62171.29,-96161.02,-96255.02,-93984.32,-59958.64,12404.77
-48390.95,-62249.58,-96265.52,-96314.83,-94037.52,-60007.21,12347.04
-48530.75,-62346.66,-96342.27,-96353.61,-94068.30,-60031.53,12286.98
-48505.90,-62321.33,-96288.02,-96333.76,-94055.78,-60012.96,12248.06
-48379.84,-62236.17,-96214.58,-96302.95,-94034.57,-59996.08,12248.40
-48395.59,-62256.02,-96259.39,-96321.62,-94046.23,-60011.05,12243.08
-48521.14,-62337.58,-96329.89,-96348.02,-94056.83,-60023.35,12234.96
-48534.93,-62338.16,-96302.98,-96340.09,-94051.48,-60014.72,12233.53
-48420.63,-62266.39,-96239.41,-96321.20,-94046.46,-60007.10,12237.24
-48397.54,-62265.05,-96270.37,-96333.09,-94057.52,-60009.11,12237.54
-48515.33,-62346.97,-96342.66,-96360.20,-94070.15,-60019.71,12238.99
-48546.18,-62352.45,-96322.88,-96356.02,-94060.85,-60023.84,12240.28
-48435.51,-62275.07,-96243.73,-96330.12,-94038.93,-60018.10,12240.04
-48381.06,-62247.86,-96244.98,-96332.13,-94042.08,-60021.79,12237.04
-48496.15,-62329.69,-96324.46,-96359.84,-94059.98,-60041.16,12238.09
-48551.16,-62355.26,-96313.24,-96353.67,-94050.57,-60037.03,12237.98
-48454.16,-62286.89,-96233.80,-96326.45,-94035.51,-60026.95,12237.40
-48373.62,-62241.13,-96220.03,-96327.34,-94040.85,-60030.93,12233.42
-48472.59,-62312.35,-96309.48,-96358.44,-94061.97,-60052.05,12238.07
-48553.78,-62357.32,-96326.12,-96359.24,-94061.39,-60048.05,12234.81
-48480.71,-62299.27,-96256.78,-96326.76,-94040.67,-60028.51,12236.55
-48386.52,-62245.56,-96226.23,-96319.92,-94042.26,-60024.89,12239.32
-48454.69,-62300.55,-96302.91,-96351.64,-94063.45,-60049.73,12237.60
-48550.47,-62357.68,-96339.08,-96357.45,-94064.67,-60045.43,12232.17
-48490.66,-62309.55,-96269.16,-96323.03,-94040.40,-60017.14,12226.52
-48384.64,-62244.35,-96221.26,-96310.04,-94034.14,-60015.15,12230.99
-48430.93,-62283.83,-96281.34,-96343.26,-94058.80,-60044.43,12228.50
-48544.21,-62352.85,-96336.28,-96360.18,-94067.88,-60039.11,12226.47
-48519.54,-62324.39,-96278.66,-96331.41,-94045.54,-60009.43,12230.63
-48402.59,-62246.84,-96208.86,-96313.13,-94033.72,-60002.83,12224.73
-48415.02,-62266.55,-96261.45,-96341.34,-94055.18,-60013.94,12222.63
-48527.45,-62338.23,-96329.02,-96359.20,-94055.38,-60007.32,12225.87
-48531.94,-62328.33,-96290.80,-96336.59,-94035.73,-59979.47,12220.86
-48410.48,-62250.52,-96214.47,-96311.74,-94024.53,-59962.57,12214.13
-48377.91,-62239.53,-96239.70,-96321.93,-94033.36,-59964.01,12208.10
-48489.11,-62313.40,-96313.82,-96349.96,-94051.76,-59980.46,12198.69
-48525.39,-62329.31,-96302.94,-96346.81,-94049.01,-59978.29,12195.49
-48420.74,-62260.40,-96231.01,-96328.21,-94039.55,-59970.98,12186.28
-48363.72,-62233.22,-96239.10,-96336.66,-94050.98,-59977.44,12175.26
-48465.15,-62304.73,-96313.84,-96355.17,-94061.97,-59985.24,12167.26
-48528.25,-62331.17,-96312.14,-96351.98,-94055.18,-59974.40,12150.61
-48438.84,-62265.63,-96236.70,-96322.07,-94039.53,-59954.44,12144.13
-48348.07,-62211.07,-96209.33,-96309.51,-94034.95,-59948.52,12132.62
-48438.53,-62277.97,-96295.49,-96339.13,-94058.48,-59968.50,12117.24
-48531.11,-62330.63,-96325.87,-96347.23,-94062.82,-59974.22,12102.22
-48461.69,-62275.29,-96256.38,-96314.87,-94042.66,-59952.23,12091.44
-48351.40,-62207.63,-96212.88,-96298.13,-94034.39,-59943.49,12083.69
-48411.26,-62256.29,-96282.66,-96320.48,-94049.59,-59953.66,12075.64
-48520.58,-62325.33,-96330.23,-96338.23,-94058.73,-59961.46,12069.83
-48482.88,-62290.78,-96275.30,-96315.90,-94039.80,-59949.48,12065.58
-48362.63,-62213.89,-96209.86,-96293.57,-94023.93,-59939.15,12061.25
-48385.36,-62238.25,-96259.17,-96313.15,-94035.82,-59952.34,12062.25
-48502.61,-62310.52,-96323.97,-96330.98,-94045.90,-59958.30,12064.38
-48498.34,-62298.58,-96284.59,-96316.88,-94036.24,-59952.54,12066.54
-48375.70,-62218.96,-96215.41,-96291.40,-94020.87,-59939.26,12070.12
-48369.98,-62223.32,-96251.48,-96300.84,-94028.63,-59932.47,12089.75
-48485.85,-62297.77,-96316.50,-96318.55,-94037.52,-59944.88,12101.99
-48496.89,-62297.48,-96282.39,-96303.98,-94025.41,-59934.23,12114.82
-48379.79,-62220.41,-96206.69,-96273.45,-94007.43,-59913.27,12138.81
-48351.23,-62208.59,-96231.12,-96288.56,-94024.63,-59923.84,12164.02
-48464.19,-62287.74,-96304.03,-96314.36,-94035.35,-59933.65,12191.45
-48519.20,-62316.64,-96300.30,-96318.00,-94038.03,-59940.05,12216.37
-48422.32,-62255.66,-96227.79,-96303.92,-94035.02,-59941.66,12241.65
-48355.52,-62221.49,-96230.02,-96306.89,-94042.64,-59943.55,12267.17
-48464.88,-62296.23,-96316.26,-96333.60,-94056.96,-59955.36,12292.88
-48537.35,-62339.21,-96330.41,-96345.16,-94063.11,-59965.77,12312.10
-48458.25,-62282.95,-96266.01,-96320.23,-94054.05,-59947.87,12331.64
-48374.38,-62234.32,-96245.11,-96321.62,-94064.09,-59958.46,12351.73
-48453.82,-62290.89,-96318.07,-96347.88,-94078.35,-59973.84,12368.14
-48549.51,-62347.37,-96349.67,-96363.09,-94084.86,-59989.84,12383.60
-48496.40,-62304.86,-96288.02,-96344.82,-94073.98,-59978.58,12398.24
-48385.58,-62236.55,-96240.26,-96327.21,-94064.63,-59963.71,12407.43
-48437.26,-62283.27,-96306.49,-96354.34,-94081.98,-59985.51,12415.90
-48549.73,-62353.30,-96357.18,-96369.25,-94087.74,-59993.24,12421.67
-48526.93,-62329.83,-96309.13,-96354.61,-94075.23,-59989.04,12423.64
-48404.18,-62249.09,-96240.28,-96330.63,-94057.12,-59971.34,12430.14
-48427.33,-62275.73,-96291.63,-96350.70,-94072.23,-59985.20,12439.55
-48546.42,-62352.85,-96356.22,-96372.11,-94084.01,-59996.80,12447.04
-48537.06,-62336.31,-96312.99,-96349.02,-94066.06,-59968.90,12448.45
-48420.94,-62264.63,-96244.91,-96325.22,-94055.20,-59960.77,12448.94
-48419.60,-62276.90,-96289.39,-96345.47,-94072.70,-59978.42,12456.16
-48530.22,-62341.27,-96351.41,-96362.37,-94075.45,-59983.12,12460.99
-48539.70,-62337.36,-96317.04,-96344.04,-94061.37,-59968.59,12462.06
-48432.29,-62265.32,-96247.95,-96318.16,-94050.82,-59953.68,12468.07
-48398.25,-62254.34,-96266.88,-96329.33,-94066.24,-59963.85,12470.42
-48514.26,-62333.52,-96347.28,-96357.20,-94085.24,-59983.59,12472.70
-48567.70,-62360.09,-96344.33,-96359.91,-94082.49,-59990.47,12474.60
-48467.01,-62290.15,-96269.54,-96338.02,-94069.95,-59977.68,12477.35
-48401.34,-62258.01,-96273.90,-96351.55,-94085.73,-59993.02,12480.68
-48498.52,-62326.81,-96356.24,-96379.42,-94100.77,-60006.68,12483.09
-48561.42,-62356.94,-96358.05,-96372.98,-94090.94,-59997.11,12484.86
-48487.75,-62303.00,-96290.73,-96349.60,-94076.23,-59987.92,12488.23
-48389.56,-62245.67,-96252.60,-96340.40,-94069.39,-59988.50,12493.91
-48470.07,-62306.85,-96333.55,-96365.84,-94089.24,-60000.93,12497.78
-48564.17,-62358.79,-96359.89,-96365.95,-94085.06,-60003.46,12498.25
-48501.41,-62309.53,-96282.59,-96336.69,-94066.40,-59983.43,12500.03
-48391.32,-62243.10,-96238.77,-96328.28,-94066.93,-59978.82,12502.31
-48447.02,-62288.52,-96310.73,-96356.27,-94086.00,-60000.44,12510.43
-48559.16,-62362.68,-96357.23,-96369.63,-94093.63,-60010.05,12509.31
-48520.02,-62326.03,-96296.38,-96335.81,-94072.39,-59978.00,12510.25
-48405.29,-62253.50,-96238.59,-96317.24,-94063.63,-59968.52,12515.57
-48430.37,-62284.27,-96299.27,-96344.66,-94083.83,-59994.32,12520.73
-48541.89,-62358.91,-96352.60,-96359.95,-94086.23,-59996.30,12522.85
-48547.18,-62354.48,-96320.28,-96342.84,-94072.97,-59975.63,12526.39
-48434.57,-62280.99,-96249.18,-96319.48,-94061.88,-59971.43,12534.01
-48413.54,-62273.39,-96276.70,-96331.10,-94069.50,-59981.11,12536.98
-48527.07,-62345.99,-96343.64,-96352.80,-94075.12,-59985.78,12537.81
-48550.29,-62351.51,-96318.67,-96345.41,-94067.85,-59981.38,12538.57
-48450.62,-62284.90,-96254.92,-96329.33,-94065.34,-59978.38,12539.26
-48409.61,-62267.96,-96269.79,-96342.63,-94080.39,-59992.13,12543.89
-48513.48,-62341.94,-96341.02,-96370.05,-94093.04,-60005.96,12553.23
-48567.93,-62368.88,-96343.19,-96367.48,-94088.13,-60003.19,12559.15
-48469.22,-62296.34,-96264.40,-96334.61,-94065.28,-59982.87,12561.10
-48400.91,-62260.92,-96258.14,-96338.56,-94073.77,-59991.61,12563.22
-48501.36,-62334.88,-96341.24,-96369.19,-94095.23,-60011.39,12566.62
-48570.54,-62373.95,-96349.18,-96367.48,-94091.66,-60009.69,12570.26
-48494.25,-62321.94,-96284.16,-96344.60,-94079.20,-60004.73,12573.84
-48391.28,-62251.39,-96245.94,-96328.51,-94067.13,-59989.60,12577.73
-48465.15,-62310.02,-96318.89,-96355.75,-94081.44,-60003.12,12582.04
-48567.50,-62371.71,-96351.93,-96367.62,-94085.38,-60012.04,12584.12
-48524.50,-62338.81,-96299.45,-96352.13,-94078.58,-60006.74,12589.75
-48406.37,-62261.83,-96242.79,-96330.54,-94064.59,-59995.97,12594.45
-48448.72,-62301.26,-96309.77,-96360.02,-94088.62,-60020.18,12598.07
-48566.72,-62377.26,-96375.65,-96379.42,-94102.45,-60024.91,12600.10
-48542.38,-62348.07,-96322.96,-96350.12,-94080.41,-59996.57,12607.75
-48422.46,-62271.04,-96254.88,-96321.42,-94064.01,-59986.76,12612.26
-48432.41,-62290.00,-96301.70,-96342.36,-94082.71,-60005.63,12609.67
-48562.89,-62375.22,-96377.27,-96369.90,-94098.07,-60023.84,12614.39
-48556.26,-62357.41,-96325.58,-96340.33,-94070.91,-59999.43,12616.87
-48439.94,-62283.56,-96254.59,-96318.07,-94060.09,-59987.74,12619.86
-48420.14,-62284.34,-96291.24,-96341.36,-94082.53,-60005.96,12624.67
-48541.62,-62363.91,-96375.42,-96370.84,-94097.48,-60020.63,12624.78
-48578.09,-62378.91,-96356.51,-96361.74,-94088.05,-60014.97,12626.59
-48466.67,-62303.56,-96276.09,-96334.32,-94072.05,-60003.01,12633.65
-48413.56,-62276.81,-96282.75,-96341.91,-94080.32,-60009.43,12640.54
-48519.69,-62349.61,-96355.64,-96365.99,-94091.43,-60018.34,12639.42
-48579.73,-62382.96,-96356.71,-96367.04,-94088.86,-60019.02,12644.29
-48496.69,-62319.79,-96291.49,-96347.37,-94083.16,-60011.64,12649.83
-48413.16,-62274.77,-96270.66,-96342.07,-94082.89,-60013.76,12653.61
-48506.17,-62344.78,-96353.02,-96370.86,-94098.13,-60028.87,12656.81
-48591.48,-62391.47,-96373.72,-96378.10,-94096.55,-60035.33,12660.59
-48517.30,-62333.67,-96300.84,-96352.49,-94078.24,-60026.50,12660.16
-48412.85,-62272.25,-96259.57,-96338.36,-94074.63,-60016.24,12662.78
-48481.40,-62327.64,-96335.50,-96369.03,-94097.96,-60029.16,12671.20
-48595.60,-62393.24,-96385.73,-96383.53,-94102.18,-60043.45,12677.51
-48546.80,-62350.17,-96315.88,-96352.09,-94080.75,-60023.84,12679.09
-48434.26,-62282.15,-96263.20,-96339.37,-94078.96,-60021.81,12681.62
-48476.68,-62321.11,-96330.38,-96369.52,-94101.78,-60046.91,12686.09
-48588.71,-62389.21,-96384.63,-96384.23,-94105.24,-60040.14,12686.98
-48568.11,-62362.35,-96334.20,-96357.74,-94082.55,-60017.23,12690.83
-48449.68,-62285.66,-96268.09,-96335.50,-94072.55,-60004.69,12696.59
-48454.38,-62302.22,-96312.41,-96356.78,-94091.61,-60017.25,12695.01
-48584.69,-62390.36,-96392.23,-96391.13,-94111.55,-60043.51,12699.66
-48585.88,-62378.87,-96351.04,-96373.50,-94090.52,-60035.96,12700.08
-48465.11,-62295.14,-96276.72,-96341.24,-94070.42,-60016.96,12700.91
-48436.05,-62285.19,-96296.74,-96348.95,-94077.51,-60028.02,12705.54
-48553.98,-62368.94,-96372.41,-96376.98,-94093.15,-60042.17,12705.47
-48588.09,-62373.19,-96359.41,-96366.34,-94079.77,-60032.63,12704.35
-48492.42,-62310.16,-96290.40,-96344.62,-94069.30,-60020.11,12706.76
-48436.16,-62288.41,-96293.52,-96359.59,-94086.06,-60037.86,12708.84
-48541.97,-62363.40,-96377.63,-96389.57,-94106.45,-60058.09,12715.88
-48600.04,-62389.55,-96376.98,-96382.64,-94098.05,-60051.34,12711.66
-48512.71,-62327.59,-96306.42,-96359.51,-94088.80,-60041.30,12712.73
-48422.97,-62273.16,-96280.16,-96354.27,-94086.27,-60043.76,12719.37
-48510.19,-62335.50,-96358.16,-96382.75,-94101.38,-60058.71,12724.13
-48599.22,-62384.70,-96382.33,-96388.66,-94104.08,-60060.95,12725.99
-48543.20,-62342.84,-96321.46,-96367.58,-94091.72,-60048.45,12726.10
-48439.34,-62282.60,-96275.77,-96360.20,-94089.80,-60052.45,12728.96
-48504.45,-62339.59,-96352.24,-96392.32,-94115.55,-60069.06,12726.88
-48605.88,-62403.54,-96395.13,-96403.85,-94121.77,-60067.29,12729.05
-48567.12,-62369.34,-96338.05,-96380.48,-94100.62,-60051.16,12737.01
-48458.82,-62305.82,-96289.30,-96371.20,-94100.33,-60055.47,12739.09
-48481.20,-62320.75,-96341.89,-96384.36,-94108.80,-60062.76,12739.11
-48594.95,-62393.73,-96394.53,-96400.55,-94114.59,-60073.35,12743.24
-48578.41,-62373.82,-96347.91,-96381.14,-94101.47,-60058.96,12748.29
-48466.54,-62301.04,-96287.94,-96362.66,-94095.52,-60046.53,12745.59
-48462.65,-62307.18,-96321.87,-96377.23,-94105.98,-60062.58,12747.49
-48577.25,-62383.87,-96388.72,-96397.59,-94115.93,-60068.90,12750.80
-48603.17,-62391.03,-96371.30,-96391.56,-94110.36,-60061.23,12752.63
-48489.67,-62315.21,-96299.18,-96369.07,-94098.45,-60046.98,12750.64
-48454.07,-62303.23,-96321.42,-96384.72,-94112.80,-60063.79,12754.31
-48559.36,-62377.66,-96390.64,-96402.73,-94118.41,-60070.51,12755.20
-48598.99,-62391.85,-96372.38,-96386.77,-94099.81,-60051.49,12758.73
-48514.71,-62335.82,-96308.77,-96373.34,-94095.34,-60049.12,12759.81
-48449.35,-62302.00,-96303.70,-96375.49,-94097.64,-60054.26,12765.93
-48550.80,-62377.68,-96382.09,-96401.88,-94111.26,-60069.21,12759.94
-48619.87,-62417.45,-96390.53,-96404.23,-94113.05,-60068.50,12755.27
-48524.81,-62336.80,-96304.48,-96362.52,-94082.80,-60037.14,12762.73
-48425.70,-62278.48,-96267.55,-96354.50,-94079.92,-60033.25,12757.86
-48516.27,-62350.23,-96359.13,-96398.31,-94114.95,-60066.09,12749.26
-48606.21,-62407.50,-96389.01,-96405.20,-94119.68,-60069.95,12745.25
-48552.35,-62367.54,-96332.59,-96379.27,-94105.63,-60055.80,12745.79
-48445.57,-62303.41,-96281.81,-96358.50,-94095.56,-60041.84,12751.33
-48509.23,-62359.78,-96362.99,-96393.26,-94122.90,-60066.15,12756.01
-48611.45,-62422.59,-96405.24,-96405.40,-94122.32,-60073.55,12756.07
-48574.41,-62388.93,-96350.16,-96381.91,-94103.10,-60058.46,12758.55
-48458.87,-62313.18,-96287.13,-96356.89,-94088.81,-60033.70,12753.82
-48480.84,-62334.57,-96335.14,-96369.14,-94093.46,-60041.95,12740.99
-48590.61,-62408.59,-96386.06,-96392.81,-94102.47,-60062.98,12732.07
-48589.72,-62400.73,-96356.73,-96386.35,-94099.70,-60052.56,12735.44
-48486.18,-62330.90,-96298.60,-96366.10,-94090.67,-60043.49,12752.85
-48473.04,-62329.60,-96318.00,-96369.25,-94091.43,-60045.07,12764.95
-48582.90,-62404.30,-96377.30,-96393.75,-94101.98,-60059.14,12776.35
-48603.80,-62408.50,-96356.83,-96381.66,-94093.53,-60052.07,12787.28
-48498.10,-62341.63,-96281.56,-96357.67,-94081.44,-60038.88,12795.46
-48451.02,-62315.63,-96296.27,-96367.20,-94090.31,-60042.19,12802.86
-48571.57,-62394.87,-96385.46,-96400.39,-94112.24,-60066.60,12800.71
-48634.58,-62429.00,-96390.17,-96400.88,-94113.72,-60068.32,12796.49
-48530.60,-62355.96,-96301.73,-96368.63,-94093.63,-60051.25,12794.00
-48454.49,-62315.05,-96290.38,-96368.07,-94096.98,-60056.81,12796.73
-48552.82,-62386.64,-96377.48,-96400.55,-94119.88,-60078.98,12799.82
-48615.31,-62417.11,-96381.21,-96396.27,-94112.44,-60072.88,12800.08
-48531.27,-62357.14,-96303.47,-96366.01,-94091.61,-60051.51,12785.60
-48447.27,-62312.32,-96285.79,-96369.56,-94099.50,-60061.48,12761.48
-48534.73,-62380.39,-96373.99,-96404.84,-94122.12,-60088.62,12739.62
-48625.48,-62433.11,-96400.26,-96406.42,-94115.86,-60082.14,12725.61
-48555.77,-62375.25,-96317.02,-96363.71,-94085.55,-60048.68,12660.77
-48425.70,-62284.12,-96248.42,-96324.52,-94057.92,-60021.23,12525.98
-48440.63,-62286.46,-96279.11,-96317.28,-94037.43,-60010.50,12426.72
-48515.02,-62318.47,-96292.98,-96298.73,-94009.40,-59985.26,12370.64
-48447.56,-62249.32,-96197.21,-96232.46,-93947.42,-59932.20,12442.12
-48291.57,-62136.33,-96089.56,-96175.84,-93899.90,-59887.34,12536.49
-48323.31,-62178.86,-96155.62,-96218.53,-93939.22,-59911.37,12642.28
-48455.12,-62270.04,-96238.92,-96252.15,-93963.51,-59938.93,12803.28
-48467.77,-62274.39,-96213.13,-96247.88,-93960.52,-59939.51,12955.94
-48388.78,-62236.91,-96178.91,-96261.95,-93983.31,-59961.44,12998.50
-48399.55,-62267.91,-96240.28,-96308.19,-94026.52,-60000.80,12964.62
-48540.48,-62365.32,-96346.23,-96365.70,-94070.04,-60042.04,12905.45
-48591.02,-62398.96,-96351.64,-96383.34,-94089.69,-60063.92,12843.27
-48501.36,-62343.35,-96293.39,-96370.37,-94092.03,-60062.93,12800.75
-48455.00,-62317.53,-96300.66,-96367.02,-94091.48,-60058.40,12795.01
-48567.03,-62398.63,-96374.93,-96397.05,-94110.81,-60079.97,12783.21
-48621.01,-62429.58,-96377.84,-96400.70,-94114.12,-60078.27,12776.86
-48529.70,-62365.59,-96307.92,-96374.75,-94100.41,-60065.64,12777.13
-48446.96,-62317.42,-96287.69,-96366.62,-94095.30,-60068.23,12779.59
-48537.86,-62382.91,-96366.99,-96384.98,-94100.69,-60073.30,12774.13
-48621.95,-62433.58,-96386.30,-96390.04,-94102.85,-60067.79,12768.10
-48551.25,-62382.40,-96316.70,-96360.60,-94084.10,-60055.25,12763.72
-48452.72,-62323.03,-96281.14,-96348.17,-94078.31,-60049.79,12761.04
-48533.48,-62386.33,-96365.50,-96388.81,-94106.43,-60079.18,12764.59
-48632.01,-62444.43,-96403.43,-96405.40,-94114.03,-60086.43,12765.13
-48582.79,-62403.65,-96341.31,-96384.14,-94101.49,-60079.21,12762.00
-48478.88,-62341.61,-96294.46,-96366.10,-94096.75,-60068.34,12758.89
-48510.75,-62374.57,-96346.27,-96377.39,-94103.59,-60066.00,12755.09
-48615.20,-62435.44,-96390.91,-96390.40,-94105.80,-60063.45,12749.28
-48595.30,-62414.54,-96344.62,-96377.08,-94096.68,-60064.28,12751.13
-48480.48,-62342.57,-96278.75,-96354.88,-94082.91,-60059.49,12746.80
-48493.58,-62361.30,-96326.05,-96371.53,-94094.52,-60070.36,12741.37
-48594.10,-62423.95,-96379.76,-96381.88,-94093.11,-60074.49,12742.08
-48595.33,-62413.45,-96344.04,-96359.95,-94071.91,-60054.08,12734.97
-48490.66,-62344.80,-96275.48,-96343.59,-94065.95,-60052.25,12731.62
-48463.54,-62334.68,-96297.44,-96357.72,-94078.80,-60062.24,12730.23
-48576.35,-62412.04,-96374.48,-96391.38,-94097.51,-60078.40,12725.54
-48609.12,-62423.21,-96359.30,-96388.52,-94092.88,-60075.09,12721.47
-48506.57,-62348.36,-96283.94,-96361.90,-94079.25,-60058.60,12717.40
-48459.23,-62325.69,-96292.05,-96376.30,-94092.82,-60067.74,12711.08
-48565.91,-62401.91,-96372.67,-96407.90,-94110.88,-60078.22,12702.92
-48618.55,-62426.32,-96368.80,-96401.15,-94098.83,-60065.84,12701.11
-48532.03,-62366.44,-96297.08,-96371.38,-94081.08,-60044.81,12693.20
-48446.98,-62318.70,-96271.06,-96364.88,-94076.77,-60041.34,12689.49
-48536.07,-62389.77,-96352.42,-96391.80,-94095.37,-60037.12,12679.50
-48626.13,-62443.64,-96387.36,-96400.27,-94098.41,-60035.40,12666.35
-48557.69,-62387.41,-96317.82,-96369.21,-94077.69,-60009.94,12656.92
-48464.04,-62331.57,-96283.91,-96361.14,-94078.49,-59994.32,12646.19
-48526.39,-62385.04,-96355.48,-96385.21,-94095.39,-60009.67,12639.89
-48629.30,-62455.87,-96401.10,-96403.61,-94109.18,-60023.77,12624.06
-48587.37,-62413.46,-96347.55,-96380.36,-94098.47,-60006.65,12610.54
-48480.38,-62341.09,-96294.13,-96357.38,-94088.19,-59991.19,12592.88
-48503.60,-62365.59,-96338.95,-96370.26,-94097.09,-59996.04,12577.84
-48612.56,-62434.54,-96396.92,-96387.91,-94105.89,-60002.00,12565.23
-48598.64,-62415.14,-96349.80,-96366.46,-94088.77,-59984.59,12549.19
-48480.57,-62335.75,-96274.80,-96336.84,-94068.01,-59970.67,12532.71
-48475.21,-62339.55,-96307.61,-96346.01,-94075.70,-59978.42,12525.27
-48580.93,-62408.13,-96369.63,-96364.96,-94085.51,-59994.45,12513.29
-48584.78,-62399.92,-96338.23,-96349.90,-94072.72,-59984.73,12501.13
-48479.79,-62327.82,-96275.27,-96331.74,-94061.39,-59968.81,12495.16
-48455.41,-62320.89,-96296.63,-96350.01,-94075.92,-59986.80,12492.61
-48573.04,-62402.18,-96380.95,-96386.66,-94096.68,-60010.52,12488.19
-48595.98,-62405.78,-96354.14,-96371.48,-94079.63,-59998.32,12486.76
-48500.76,-62339.82,-96288.70,-96350.52,-94070.40,-59984.26,12485.33
-48444.14,-62311.88,-96286.44,-96357.49,-94076.27,-59987.43,12494.20
-48543.61,-62380.90,-96365.12,-96379.18,-94089.48,-60003.86,12502.76
-48599.38,-62410.56,-96361.43,-96370.34,-94080.77,-59992.55,12513.53
-48513.50,-62341.79,-96285.05,-96338.34,-94061.26,-59967.71,12528.96
-48427.15,-62293.24,-96263.80,-96333.73,-94064.23,-59971.49,12546.12
-48525.55,-62370.62,-96360.40,-96369.32,-94096.03,-59998.67,12567.60
-48616.76,-62424.66,-96391.00,-96368.29,-94093.95,-59989.15,12588.46
-48554.34,-62376.99,-96320.46,-96337.38,-94075.90,-59973.80,12614.74
-48448.03,-62309.22,-96270.73,-96319.88,-94069.48,-59967.43,12638.15
-48517.99,-62368.47,-96355.04,-96356.83,-94095.39,-59993.27,12661.66
-48627.76,-62437.05,-96405.51,-96367.48,-94096.75,-59987.99,12686.13
-48588.60,-62402.07,-96341.27,-96346.37,-94082.94,-59977.53,12706.92
-48474.92,-62328.64,-96285.79,-96337.20,-94080.75,-59979.29,12730.01
-48507.98,-62358.21,-96348.04,-96357.30,-94095.97,-59990.09,12744.00
-48614.68,-62425.00,-96395.18,-96369.74,-94100.22,-59997.00,12760.23
-48599.26,-62408.50,-96348.31,-96358.68,-94091.84,-59986.49,12767.58
-48488.58,-62335.64,-96287.80,-96344.71,-94087.45,-59979.36,12781.22
-48490.07,-62347.89,-96329.96,-96372.59,-94110.09,-60000.51,12791.75
-48605.57,-62426.54,-96404.97,-96404.91,-94127.53,-60020.71,12794.45
-48612.41,-62416.37,-96372.60,-96387.18,-94106.83,-60003.75,12799.91
-48500.04,-62337.49,-96293.37,-96364.76,-94089.15,-59994.58,12803.39
-48458.02,-62317.36,-96304.08,-96378.26,-94096.39,-60011.59,12816.87
-48574.45,-62403.52,-96387.65,-96416.73,-94123.51,-60030.95,12817.36
-48615.18,-62420.44,-96380.63,-96409.15,-94113.56,-60024.91,12812.42
-48517.95,-62350.05,-96304.99,-96379.98,-94097.66,-60013.45,12817.18
-48451.52,-62315.05,-96299.72,-96381.86,-94105.63,-60024.27,12821.16
-48553.48,-62396.03,-96388.07,-96410.09,-94127.82,-60027.82,12823.51
-48615.40,-62427.13,-96391.98,-96405.40,-94117.63,-60027.86,12824.69
-48534.66,-62366.30,-96322.65,-96371.78,-94096.82,-60006.30,12825.99
-48448.99,-62316.55,-96291.55,-96358.12,-94091.54,-59996.21,12821.27
-48526.02,-62380.16,-96366.39,-96382.15,-94107.10,-60007.52,12825.25
-48621.32,-62440.82,-96403.36,-96395.23,-94114.56,-60017.54,12823.37
-48571.12,-62398.71,-96347.10,-96373.66,-94104.17,-60006.83,12825.41
-48459.81,-62326.05,-96293.79,-96356.65,-94094.90,-59998.16,12826.50
-48513.92,-62376.14,-96368.45,-96391.13,-94122.99,-60028.38,12826.08
-48625.70,-62451.87,-96422.90,-96405.24,-94131.33,-60031.53,12818.97
-48593.90,-62421.78,-96366.84,-96378.69,-94112.95,-60016.31,12820.16
-48475.39,-62342.23,-96296.63,-96354.37,-94096.77,-60006.21,12823.33
-48505.77,-62373.59,-96358.79,-96381.45,-94114.23,-60027.60,12827.24
-48629.19,-62454.73,-96421.16,-96400.95,-94123.15,-60035.71,12826.70
-48625.30,-62442.41,-96373.41,-96379.80,-94104.73,-60016.73,12828.69
-48512.29,-62364.02,-96306.47,-96360.70,-94096.35,-60015.57,12832.11
-48494.37,-62357.70,-96334.48,-96373.16,-94103.68,-60027.30,12830.93
-48605.74,-62431.97,-96401.73,-96396.50,-94110.81,-60024.04,12830.79
-48625.97,-62436.94,-96375.89,-96395.98,-94109.06,-60028.43,12831.04
-48520.43,-62361.48,-96311.85,-96381.44,-94102.54,-60029.25,12831.11
-48468.82,-62330.39,-96312.13,-96383.60,-94103.39,-60028.29,12830.19
-48580.49,-62410.00,-96394.29,-96414.60,-94124.69,-60052.81,12830.82
-48632.57,-62436.96,-96386.40,-96413.48,-94119.26,-60049.86,12830.71
-48529.46,-62366.84,-96301.82,-96376.90,-94095.52,-60025.29,12833.90
-48462.85,-62330.72,-96298.40,-96382.10,-94106.27,-60038.75,12835.80
-48561.93,-62400.86,-96380.00,-96403.80,-94117.23,-60051.22,12840.50
-48633.77,-62443.44,-96386.15,-96396.90,-94107.05,-60035.44,12840.76
-48564.24,-62390.33,-96321.13,-96372.47,-94092.44,-60024.11,12842.24
-48470.58,-62332.89,-96291.29,-96366.30,-94093.73,-60027.11,12843.67
-48548.68,-62393.08,-96374.80,-96391.02,-94111.01,-60032.13,12845.28
-48645.69,-62453.19,-96404.77,-96398.65,-94110.34,-60036.36,12847.18
-48591.57,-62411.25,-96339.01,-96376.45,-94099.19,-60024.40,12848.88
-48482.99,-62341.23,-96285.99,-96360.47,-94093.29,-60019.30,12848.27
-48526.29,-62380.12,-96347.99,-96382.53,-94111.16,-60037.30,12853.24
-48639.47,-62452.70,-96400.32,-96399.09,-94123.10,-60046.24,12853.73
-48611.27,-62422.47,-96344.84,-96374.46,-94104.77,-60033.01,12855.29
-48489.02,-62338.88,-96275.06,-96347.17,-94086.58,-60020.55,12853.50
-48502.66,-62358.55,-96324.64,-96364.20,-94100.66,-60027.82,12855.76
-48621.10,-62436.40,-96387.91,-96380.00,-94107.08,-60031.33,12863.50
-48636.34,-62437.41,-96359.98,-96371.55,-94104.53,-60027.53,12861.95
-48528.43,-62363.91,-96295.24,-96352.94,-94099.41,-60020.63,12863.72
-48508.25,-62358.48,-96323.99,-96368.96,-94112.82,-60031.80,12874.25
-48626.15,-62440.73,-96401.88,-96403.05,-94129.92,-60049.37,12872.84
-48658.65,-62453.90,-96390.33,-96399.13,-94122.99,-60049.12,12871.56
-48548.75,-62375.09,-96309.57,-96362.97,-94096.98,-60020.18,12877.02
-48487.68,-62339.46,-96302.17,-96362.99,-94095.52,-60021.90,12880.59
-48603.00,-62418.45,-96388.52,-96400.19,-94119.17,-60050.80,12877.60
-48656.19,-62446.77,-96381.50,-96398.96,-94110.14,-60050.71,12878.85
-48570.27,-62385.21,-96318.16,-96382.91,-94101.00,-60045.63,12884.95
-48490.52,-62336.40,-96303.88,-96382.33,-94104.95,-60047.33,12889.96
-48583.28,-62406.40,-96385.30,-96410.80,-94123.05,-60060.34,12891.84
-48664.64,-62456.29,-96407.88,-96415.74,-94126.19,-60063.92,12892.15
-48589.20,-62398.49,-96336.73,-96385.59,-94106.01,-60046.17,12891.88
-48481.22,-62326.92,-96290.10,-96369.38,-94096.39,-60039.82,12892.84
-48549.64,-62380.23,-96361.67,-96390.69,-94110.95,-60049.17,12897.65
-48648.44,-62445.95,-96396.43,-96403.67,-94119.64,-60052.81,12899.53
-48599.64,-62402.18,-96335.81,-96378.64,-94101.13,-60036.27,12901.61
-48490.16,-62331.70,-96282.30,-96364.60,-94096.23,-60033.48,12896.71
-48534.46,-62373.55,-96346.63,-96392.30,-94120.89,-60055.56,12906.54
-48639.52,-62439.15,-96389.66,-96396.25,-94118.14,-60050.91,12908.53
-48613.23,-62409.06,-96335.05,-96369.90,-94093.98,-60035.89,12905.87
-48493.45,-62329.60,-96269.43,-96352.63,-94086.80,-60037.21,12903.80
-48512.27,-62353.59,-96327.79,-96374.48,-94106.02,-60044.54,12906.86
-48631.63,-62436.18,-96390.66,-96394.04,-94110.36,-60051.49,12912.27
-48641.24,-62437.83,-96356.31,-96377.97,-94092.77,-60041.23,12909.94
-48519.36,-62347.62,-96277.77,-96349.56,-94075.43,-60023.26,12910.50
-48489.80,-62333.96,-96299.60,-96355.71,-94083.05,-60029.83,12910.05
-48611.49,-62421.69,-96378.28,-96384.38,-94100.77,-60049.03,12909.61
-48647.88,-62437.45,-96363.38,-96378.66,-94093.80,-60046.77,12905.07
-48541.15,-62360.85,-96287.63,-96354.63,-94079.88,-60029.50,12911.19
-48481.76,-62329.31,-96293.46,-96365.12,-94089.58,-60040.27,12913.23
-48597.03,-62413.69,-96384.72,-96403.77,-94117.11,-60073.04,12917.54
-48661.63,-62445.39,-96389.34,-96400.09,-94112.73,-60069.06,12919.93
-48563.01,-62369.93,-96302.09,-96364.29,-94088.08,-60041.16,12921.79
-48473.82,-62316.64,-96278.59,-96359.24,-94088.15,-60044.90,12921.16
-48567.93,-62391.07,-96362.14,-96388.14,-94109.29,-60068.03,12916.04
-48655.86,-62443.20,-96382.64,-96391.89,-94108.22,-60071.07,12917.61
-48587.50,-62389.66,-96313.22,-96369.07,-94091.32,-60053.68,12915.89
-48484.57,-62326.29,-96275.60,-96365.68,-94092.84,-60059.20,12914.59
-48554.71,-62387.54,-96356.42,-96400.43,-94120.98,-60083.88,12916.42
-48649.38,-62446.26,-96393.15,-96404.05,-94122.14,-60076.30,12914.50
-48601.54,-62399.77,-96328.91,-96374.41,-94097.33,-60052.52,12915.31
-48493.07,-62329.43,-96277.43,-96366.48,-94095.41,-60049.34,12917.39
-48534.26,-62367.33,-96343.64,-96388.23,-94110.48,-60062.64,12916.78
-48641.02,-62436.45,-96387.60,-96396.77,-94104.20,-60063.07,12918.84
-48631.61,-62423.75,-96350.01,-96382.38,-94089.76,-60054.08,12918.95
-48514.41,-62347.98,-96285.86,-96366.16,-94082.11,-60048.23,12919.06
-48511.09,-62355.13,-96327.01,-96380.41,-94094.27,-60059.29,12917.59
-48634.64,-62439.62,-96398.60,-96405.10,-94105.89,-60073.95,12918.12
-48649.11,-62442.08,-96366.21,-96390.30,-94096.75,-60057.37,12922.04
-48536.48,-62360.80,-96296.14,-96371.04,-94090.98,-60053.37,12919.93
-48497.74,-62339.17,-96310.91,-96376.94,-94101.66,-60059.16,12920.05
-48607.60,-62418.23,-96385.68,-96398.29,-94115.70,-60068.99,12925.52
-48646.80,-62436.60,-96372.94,-96397.35,-94113.41,-60069.44,12925.81
-48543.81,-62363.06,-96304.77,-96377.61,-94101.00,-60058.84,12928.27
-48485.13,-62334.12,-96309.82,-96388.92,-94114.85,-60073.78,12926.91
-48590.14,-62412.28,-96389.57,-96414.13,-94127.28,-60087.72,12925.41
-48642.71,-62438.61,-96378.48,-96405.44,-94110.92,-60079.54,12922.73
-48564.95,-62383.74,-96318.60,-96391.42,-94107.48,-60079.52,12922.71
-48473.13,-62328.06,-96292.16,-96381.75,-94104.84,-60069.35,12923.42
-48568.59,-62404.19,-96379.24,-96415.84,-94131.30,-60096.11,12921.19
-48663.14,-62461.19,-96412.23,-96426.67,-94132.00,-60102.30,12926.15
-48598.77,-62407.10,-96344.15,-96391.76,-94104.80,-60070.00,12929.17
-48493.52,-62340.64,-96295.54,-96379.09,-94096.91,-60065.26,12930.15
-48550.94,-62389.08,-96362.37,-96403.38,-94111.05,-60079.74,12929.23
-48664.35,-62462.91,-96414.34,-96415.79,-94114.77,-60086.14,12927.42
-48617.05,-62418.18,-96342.84,-96377.99,-94082.52,-60055.65,12932.85
-48504.16,-62344.82,-96286.22,-96368.70,-94080.70,-60059.45,12927.98
-48537.75,-62376.34,-96347.10,-96393.84,-94102.09,-60078.04,12931.53
-48652.93,-62454.06,-96405.33,-96411.34,-94110.48,-60080.41,12929.21
-48639.34,-62434.72,-96360.53,-96391.45,-94095.61,-60067.96,12927.33
-48521.03,-62350.57,-96294.64,-96370.15,-94085.59,-60058.96,12928.45
-48509.63,-62350.17,-96325.35,-96379.91,-94092.59,-60064.99,12932.09
-48632.39,-62437.70,-96400.14,-96401.30,-94104.69,-60075.56,12924.76
-48646.52,-62436.11,-96364.31,-96388.05,-94096.57,-60070.20,12916.38
-48538.80,-62358.88,-96299.27,-96371.60,-94092.33,-60066.51,12912.25
-48504.27,-62349.88,-96320.97,-96387.34,-94110.38,-60078.85,12906.48
-48621.12,-62433.45,-96402.34,-96411.43,-94125.07,-60090.63,12913.34
-48669.09,-62458.64,-96389.64,-96403.98,-94119.02,-60089.38,12916.98
-48569.89,-62386.85,-96315.95,-96377.19,-94105.84,-60076.12,12915.26
-48495.95,-62341.38,-96302.89,-96374.05,-94105.27,-60078.38,12918.26
-48591.51,-62410.47,-96376.49,-96397.46,-94115.59,-60090.96,12910.99
-48653.53,-62441.54,-96375.71,-96382.75,-94101.11,-60063.09,12896.02
-48578.07,-62381.91,-96304.30,-96362.59,-94088.93,-60060.45,12894.01
-48484.44,-62323.86,-96274.01,-96360.06,-94088.41,-60066.69,12908.60
-48567.57,-62390.63,-96353.78,-96393.44,-94110.70,-60088.89,12923.51
-48654.02,-62442.52,-96378.23,-96395.25,-94106.18,-60086.09,12939.76
-48598.97,-62396.21,-96316.05,-96374.80,-94088.86,-60080.30,12947.00
-48486.79,-62319.72,-96262.45,-96357.05,-94076.08,-60065.28,12950.56
-48542.45,-62366.55,-96332.26,-96385.01,-94096.55,-60079.21,12957.91
-48654.14,-62442.88,-96382.13,-96408.48,-94111.03,-60097.38,12949.66
-48613.90,-62402.47,-96328.44,-96381.14,-94090.49,-60073.73,12951.27
-48506.17,-62330.27,-96272.98,-96370.23,-94087.81,-60078.40,12953.60
-48529.19,-62355.71,-96329.76,-96392.54,-94105.40,-60094.77,12957.62
-48646.89,-62431.82,-96387.27,-96405.77,-94105.52,-60090.76,12958.51
-48647.72,-62427.05,-96351.41,-96395.80,-94095.07,-60085.09,12956.21
-48534.60,-62357.01,-96284.36,-96376.41,-94090.11,-60072.93,12944.61
-48529.68,-62360.58,-96328.33,-96394.91,-94113.63,-60087.57,12921.32
-48662.54,-62460.14,-96416.70,-96428.57,-94139.53,-60108.78,12890.21
-48692.31,-62469.77,-96402.22,-96416.68,-94129.74,-60095.61,12880.59
-48559.18,-62367.96,-96299.60,-96366.50,-94089.09,-60059.31,12861.13
-48484.96,-62312.57,-96282.51,-96343.64,-94065.62,-60046.73,12773.15
-48561.51,-62355.53,-96321.80,-96328.10,-94042.68,-60022.57,12659.87
-48575.30,-62344.63,-96270.84,-96277.61,-93991.41,-59973.80,12574.26
-48437.43,-62233.25,-96150.59,-96213.10,-93931.57,-59929.14,12592.26
-48301.02,-62124.17,-96075.93,-96155.95,-93875.87,-59876.52,12713.94
-48395.46,-62195.94,-96153.34,-96185.43,-93898.76,-59894.87,12824.07
-48497.23,-62273.72,-96200.20,-96221.15,-93933.67,-59930.12,12936.23
-48436.72,-62234.81,-96149.91,-96213.69,-93934.21,-59930.59,13107.06
-48377.27,-62214.83,-96158.63,-96247.34,-93974.71,-59968.19,13175.10
-48487.46,-62309.42,-96277.19,-96313.80,-94030.03,-60024.07,13162.05
-48623.74,-62409.13,-96350.63,-96361.48,-94067.27,-60067.79,13119.67
-48596.69,-62391.16,-96312.30,-96366.23,-94077.88,-60081.91,13046.15
-48500.18,-62333.25,-96276.09,-96372.25,-94089.09,-60101.16,12986.83
-48548.73,-62374.57,-96345.45,-96399.56,-94107.28,-60112.85,12952.57
-48654.83,-62440.07,-96389.62,-96412.10,-94105.63,-60110.01,12933.59
-48631.63,-62415.61,-96343.15,-96394.09,-94090.02,-60096.89,12928.09
-48523.54,-62344.55,-96288.79,-96376.98,-94082.11,-60090.00,12924.29
-48537.39,-62360.88,-96335.86,-96396.52,-94099.19,-60106.90,12917.50
-48669.60,-62454.23,-96416.57,-96428.57,-94119.30,-60129.77,12913.81
-48663.90,-62441.77,-96372.00,-96407.61,-94102.72,-60113.92,12913.03
-48542.45,-62361.75,-96302.06,-96383.70,-94095.86,-60096.38,12912.07
-48521.12,-62358.23,-96335.99,-96393.66,-94109.27,-60094.77,12913.25
-48641.95,-62445.03,-96414.63,-96414.91,-94124.63,-60109.49,12914.55
-48668.57,-62455.60,-96389.57,-96400.52,-94113.70,-60101.09,12906.48
-48557.06,-62374.02,-96313.51,-96374.88,-94102.83,-60092.04,12900.76
-48503.69,-62344.40,-96316.59,-96378.38,-94110.77,-60093.82,12902.52
-48624.77,-62436.94,-96406.02,-96417.84,-94140.00,-60117.70,12902.43
-48673.29,-62459.20,-96395.90,-96410.27,-94127.13,-60105.94,12898.81
-48570.81,-62382.51,-96314.94,-96383.09,-94105.76,-60094.05,12894.43
-48492.64,-62334.79,-96299.52,-96376.83,-94102.83,-60087.21,12890.43
-48595.35,-62415.72,-96383.89,-96410.83,-94125.25,-60110.03,12884.64
-48674.59,-62461.21,-96400.21,-96414.52,-94119.95,-60111.46,12882.83
-48593.61,-62395.50,-96324.34,-96385.50,-94093.60,-60094.92,12879.66
-48497.72,-62336.40,-96292.09,-96376.78,-94091.32,-60097.63,12880.08
-48570.36,-62395.16,-96364.38,-96405.28,-94106.90,-60114.90,12879.83
-48658.90,-62448.47,-96386.27,-96407.34,-94099.59,-60112.00,12876.50
-48614.51,-62415.88,-96333.58,-96395.27,-94094.09,-60106.12,12871.79
-48497.00,-62334.68,-96277.19,-96376.88,-94081.28,-60096.82,12866.07
-48535.45,-62363.98,-96337.78,-96398.73,-94095.50,-60107.80,12861.06
-48645.55,-62438.72,-96389.75,-96413.13,-94098.25,-60111.46,12857.08
-48626.93,-62418.61,-96344.71,-96396.84,-94089.87,-60092.04,12849.86
-48516.40,-62344.78,-96287.04,-96382.28,-94089.02,-60083.81,12844.41
-48518.73,-62356.11,-96329.11,-96399.78,-94105.22,-60097.36,12835.98
-48634.58,-62438.64,-96397.46,-96423.03,-94124.55,-60101.74,12830.91
-48644.46,-62436.15,-96371.13,-96408.46,-94120.55,-60084.19,12819.26
-48516.38,-62344.45,-96287.55,-96373.99,-94098.52,-60055.65,12812.44
-48489.14,-62336.42,-96312.14,-96386.69,-94112.84,-60057.41,12802.10
-48608.54,-62419.03,-96394.33,-96411.16,-94128.83,-60067.54,12794.23
-48646.60,-62433.43,-96381.63,-96405.22,-94120.78,-60069.64,12780.68
-48533.59,-62350.32,-96297.93,-96370.95,-94096.51,-60035.91,12765.26
-48471.16,-62315.77,-96301.33,-96373.39,-94097.63,-60031.24,12756.36
-48587.64,-62403.21,-96390.29,-96408.63,-94121.38,-60054.15,12741.43
-48636.19,-62422.68,-96380.41,-96394.29,-94101.96,-60035.35,12724.69
-48549.37,-62359.18,-96311.16,-96372.78,-94088.16,-60028.45,12711.55
-48455.43,-62296.39,-96277.95,-96355.30,-94075.23,-60013.54,12702.85
-48557.04,-62381.82,-96367.17,-96396.41,-94106.02,-60043.91,12687.27
-48637.04,-62422.95,-96386.73,-96401.33,-94106.56,-60046.24,12676.14
-48553.48,-62354.30,-96301.98,-96362.63,-94075.02,-60015.26,12667.58
-48439.22,-62279.89,-96253.41,-96345.38,-94063.85,-60007.17,12660.36
-48509.90,-62336.71,-96333.83,-96374.75,-94085.62,-60030.52,12652.83
-48618.53,-62408.77,-96377.39,-96387.02,-94093.60,-60042.30,12651.13
-48571.37,-62366.93,-96312.39,-96362.52,-94074.66,-60032.94,12653.55
-48454.89,-62289.71,-96259.21,-96349.07,-94071.60,-60025.47,12654.84
-48490.50,-62324.46,-96317.11,-96367.55,-94086.40,-60029.16,12663.87
-48603.24,-62399.12,-96369.32,-96381.48,-94088.80,-60033.09,12671.27
-48587.95,-62377.01,-96323.70,-96360.76,-94072.50,-60016.93,12681.78
-48475.93,-62305.24,-96261.56,-96346.32,-94071.74,-60011.73,12695.72
-48477.73,-62319.05,-96305.88,-96366.84,-94089.66,-60030.12,12714.16
-48600.45,-62404.41,-96377.68,-96389.03,-94102.88,-60043.09,12734.77
-48619.60,-62405.31,-96350.68,-96374.26,-94088.68,-60027.33,12752.43
-48503.84,-62324.20,-96270.32,-96347.30,-94071.49,-60006.59,12776.86
-48472.86,-62313.04,-96294.20,-96365.14,-94089.46,-60024.51,12808.24
-48592.82,-62398.27,-96374.82,-96391.18,-94106.74,-60039.38,12834.26
-48644.57,-62427.68,-96373.30,-96393.19,-94109.78,-60033.21,12855.34
-48541.66,-62354.01,-96298.17,-96367.55,-94091.97,-60019.77,12875.99
-48475.28,-62318.98,-96294.38,-96367.22,-94093.63,-60020.36,12893.89
-48588.40,-62399.47,-96381.63,-96396.16,-94115.80,-60040.85,12913.32
-48655.34,-62439.75,-96383.78,-96396.66,-94114.50,-60042.98,12926.95
-48569.02,-62372.34,-96312.23,-96369.32,-94097.94,-60026.41,12943.36
-48483.37,-62317.46,-96291.09,-96365.20,-94100.98,-60027.38,12957.48
-48580.80,-62395.25,-96380.59,-96400.43,-94131.93,-60057.44,12969.58
-48672.20,-62455.27,-96402.65,-96407.30,-94133.07,-60057.68,12976.48
-48591.80,-62391.00,-96321.77,-96373.43,-94104.82,-60027.60,12983.99
-48491.75,-62326.99,-96288.59,-96369.12,-94104.46,-60034.93,12987.28
-48561.09,-62386.51,-96363.62,-96399.41,-94125.98,-60057.84,12992.40
-48669.60,-62457.68,-96405.35,-96412.46,-94130.37,-60062.13,12996.71
-48622.15,-62412.64,-96343.32,-96383.45,-94108.46,-60040.79,13002.88
-48498.37,-62327.10,-96284.02,-96365.32,-94098.74,-60031.89,13005.50
-48521.14,-62353.30,-96338.41,-96388.79,-94116.64,-60043.87,13005.45
-48643.41,-62433.76,-96403.95,-96409.80,-94126.99,-60056.88,13004.51
-48632.14,-62412.13,-96356.18,-96386.44,-94107.13,-60044.70,13003.82
-48509.57,-62328.64,-96282.59,-96364.54,-94094.56,-60041.50,13004.94
-48506.30,-62340.38,-96323.59,-96382.35,-94114.27,-60041.97,13004.49
-48635.41,-62432.80,-96402.27,-96411.59,-94133.77,-60059.56,13007.91
-48656.17,-62434.07,-96375.66,-96396.19,-94118.14,-60047.20,13011.40
-48539.74,-62352.36,-96299.38,-96367.71,-94100.66,-60032.02,13010.30
-48502.10,-62342.34,-96321.15,-96380.18,-94114.14,-60042.50,13009.36
-48623.45,-62431.80,-96408.48,-96411.61,-94132.85,-60059.96,13011.53
-48673.56,-62452.00,-96399.98,-96406.58,-94125.70,-60057.93,13010.12
-48557.02,-62364.07,-96310.52,-96367.46,-94097.69,-60037.50,13013.36
-48483.32,-62318.94,-96300.12,-96367.51,-94099.23,-60031.35,13015.49
-48593.32,-62404.44,-96387.89,-96405.28,-94125.14,-60059.05,13013.10
-48660.44,-62441.36,-96386.77,-96402.22,-94115.08,-60055.20,13013.65
-48570.23,-62370.89,-96306.16,-96372.83,-94094.52,-60042.15,13011.84
-48479.61,-62314.27,-96280.63,-96370.19,-94097.40,-60048.88,13015.17
-48568.46,-62390.73,-96366.95,-96408.93,-94129.16,-60073.15,13023.78
-48663.48,-62451.11,-96400.97,-96416.57,-94133.90,-60070.98,13024.88
-48600.60,-62393.82,-96331.26,-96383.11,-94106.79,-60050.55,13023.27
-48482.68,-62315.75,-96274.13,-96365.19,-94093.09,-60038.39,13023.71
-48536.86,-62363.60,-96341.96,-96392.30,-94110.38,-60042.39,13028.45
-48660.17,-62446.41,-96398.71,-96418.11,-94123.33,-60059.40,13031.13
-48622.55,-62409.60,-96338.45,-96393.30,-94103.55,-60051.89,13032.94
-48494.66,-62321.73,-96272.49,-96368.36,-94090.49,-60035.93,13034.17
-48512.38,-62342.63,-96317.28,-96383.18,-94100.30,-60044.14,13039.67
-48635.63,-62430.63,-96384.79,-96407.30,-94116.94,-60058.06,13042.18
-48636.54,-62420.02,-96354.12,-96392.59,-94106.92,-60046.42,13040.57
-48519.13,-62337.54,-96285.99,-96372.36,-94095.34,-60035.40,13041.15
-48512.31,-62347.91,-96324.82,-96395.00,-94116.58,-60052.14,13044.39
-48639.23,-62440.09,-96404.73,-96417.24,-94129.83,-60064.14,13048.90
-48668.31,-62438.97,-96385.26,-96402.47,-94117.36,-60054.04,13051.79
-48560.86,-62364.49,-96309.04,-96380.02,-94109.63,-60046.60,13051.99
-48505.16,-62332.96,-96309.55,-96380.30,-94108.15,-60042.64,13058.25
-48626.33,-62420.51,-96392.81,-96407.18,-94125.23,-60060.07,13056.30
-48683.80,-62454.37,-96388.81,-96407.05,-94123.55,-60057.95,13058.87
-48581.49,-62379.13,-96317.38,-96382.41,-94109.78,-60045.75,13066.00
-48490.23,-62321.31,-96293.68,-96368.05,-94098.13,-60035.20,13071.50
-48591.93,-62398.87,-96377.05,-96402.84,-94120.89,-60060.63,13071.70
-48680.55,-62455.42,-96402.00,-96414.83,-94129.05,-60070.36,13070.34
-48602.28,-62395.05,-96335.52,-96385.63,-94111.21,-60051.58,13071.50
-48498.79,-62326.92,-96296.81,-96375.06,-94105.69,-60047.89,13070.67
-48573.89,-62384.81,-96367.51,-96400.43,-94120.69,-60069.24,13073.11
-48677.38,-62455.84,-96408.34,-96415.19,-94129.52,-60070.36,13076.62
-48631.45,-62418.32,-96355.51,-96396.23,-94123.22,-60060.41,13082.23
-48506.46,-62333.16,-96296.01,-96377.34,-94108.93,-60054.46,13084.46
-48548.14,-62367.27,-96357.30,-96393.15,-94118.59,-60060.68,13083.17
-48667.70,-62446.41,-96411.45,-96413.40,-94128.29,-60070.87,13084.15
-48644.64,-62423.82,-96364.47,-96400.43,-94118.77,-60066.00,13086.92
-48519.31,-62338.21,-96295.98,-96375.20,-94106.77,-60051.67,13089.72
-48526.21,-62354.30,-96339.70,-96391.27,-94118.41,-60065.84,13088.73
-48657.93,-62445.21,-96416.08,-96417.13,-94132.29,-60078.49,13090.52
-48658.36,-62433.67,-96368.13,-96395.52,-94112.66,-60057.26,13092.78
-48528.86,-62346.75,-96282.28,-96369.88,-94094.36,-60044.09,13089.20
-48505.30,-62342.34,-96317.06,-96388.70,-94106.63,-60065.53,13091.21
-48635.20,-62428.93,-96401.26,-96417.17,-94125.16,-60087.50,13094.57
-48667.34,-62440.69,-96376.77,-96400.32,-94115.41,-60066.82,13094.68
-48554.29,-62359.75,-96298.55,-96373.43,-94100.51,-60058.89,13100.63
-48501.79,-62333.34,-96307.90,-96380.67,-94107.86,-60063.85,13103.17
-48618.98,-62419.28,-96390.64,-96408.57,-94124.58,-60076.86,13102.19
-48683.86,-62454.95,-96396.30,-96411.43,-94125.61,-60076.77,13107.35
-48585.23,-62376.16,-96317.11,-96376.16,-94100.86,-60053.21,13109.32
-48509.03,-62330.86,-96303.36,-96376.83,-94105.02,-60059.49,13111.62
-48615.02,-62414.05,-96397.13,-96414.96,-94134.08,-60086.85,13111.15
-48694.04,-62458.37,-96407.01,-96408.93,-94122.30,-60079.21,13110.91
-48614.46,-62399.07,-96335.34,-96388.05,-94108.38,-60068.81,13108.94
-48505.34,-62327.59,-96299.31,-96378.39,-94105.55,-60055.92,13108.81
-48579.32,-62385.53,-96375.96,-96403.65,-94120.33,-60074.09,13113.81
-48679.50,-62447.78,-96401.48,-96404.88,-94111.88,-60070.51,13116.92
-48630.40,-62406.23,-96338.12,-96383.60,-94097.58,-60059.89,13114.95
-48518.57,-62332.78,-96291.58,-96375.04,-94097.55,-60061.23,13114.06
-48558.61,-62370.26,-96352.84,-96394.66,-94115.10,-60070.69,13118.10
-48679.95,-62453.68,-96412.28,-96412.55,-94126.12,-60081.75,13116.47
-48656.86,-62431.19,-96356.53,-96388.97,-94108.82,-60069.30,13119.98
-48530.75,-62341.18,-96288.63,-96369.77,-94098.90,-60060.01,13125.08
-48540.77,-62357.25,-96335.95,-96387.02,-94112.66,-60063.16,13125.64
-48660.53,-62441.92,-96401.46,-96409.69,-94122.48,-60077.00,13120.92
-48663.72,-62431.35,-96362.66,-96394.48,-94106.20,-60068.39,13123.74
-48549.98,-62355.02,-96293.13,-96381.34,-94099.81,-60070.69,13126.93
-48512.14,-62336.80,-96307.16,-96386.80,-94104.26,-60074.58,13128.12
-48631.70,-62421.98,-96381.37,-96410.24,-94116.98,-60084.17,13129.35
-48661.18,-62432.93,-96361.05,-96401.66,-94107.70,-60078.96,13128.95
-48554.31,-62355.42,-96288.00,-96380.54,-94095.72,-60071.03,13134.76
-48497.32,-62324.06,-96296.92,-96389.52,-94105.45,-60077.82,13132.07
-48614.39,-62409.76,-96386.13,-96417.40,-94124.22,-60092.57,13130.35
-48673.36,-62443.20,-96384.88,-96410.73,-94118.66,-60087.48,13135.87
-48587.53,-62384.97,-96318.20,-96392.25,-94113.23,-60076.70,13136.88
-48502.32,-62335.14,-96304.37,-96387.58,-94116.64,-60067.94,13140.90
-48596.34,-62409.36,-96384.63,-96406.89,-94127.48,-60076.14,13139.38
-48692.47,-62471.16,-96412.50,-96418.56,-94132.27,-60084.50,13138.15
-48620.59,-62412.44,-96340.95,-96392.37,-94112.15,-60075.14,13140.23
-48504.96,-62335.19,-96294.59,-96379.58,-94105.69,-60071.38,13139.09
-48573.27,-62388.70,-96368.52,-96403.30,-94121.90,-60085.98,13140.21
-48676.42,-62458.89,-96400.55,-96412.55,-94122.97,-60090.23,13139.12
-48639.29,-62424.04,-96351.44,-96396.95,-94114.74,-60083.25,13143.52
-48520.74,-62345.70,-96294.04,-96379.87,-94105.83,-60076.39,13148.19
-48556.64,-62380.45,-96352.17,-96396.63,-94114.99,-60075.88,13152.62
-48678.23,-62461.61,-96405.41,-96412.10,-94118.74,-60079.50,13144.43
-48663.75,-62440.58,-96360.87,-96393.82,-94105.18,-60070.07,13144.41
-48532.36,-62347.93,-96281.79,-96364.78,-94088.93,-60053.32,13147.81
-48529.59,-62354.08,-96320.52,-96383.09,-94104.46,-60068.23,13144.46
-48651.74,-62438.28,-96393.17,-96405.73,-94116.22,-60078.18,13141.19
-48667.52,-62438.70,-96368.47,-96396.50,-94107.13,-60070.96,13140.05
-48555.52,-62362.19,-96299.05,-96381.66,-94098.41,-60066.78,13134.96
-48519.91,-62349.72,-96319.85,-96396.37,-94110.43,-60084.04,13130.96
-48624.14,-62421.09,-96380.92,-96406.47,-94107.23,-60085.44,13134.29
-48660.11,-62434.97,-96358.70,-96392.09,-94091.59,-60072.37,13137.19
-48562.76,-62366.08,-96292.14,-96370.28,-94082.49,-60063.25,13138.11
-48497.05,-62329.49,-96292.32,-96371.64,-94086.29,-60069.33,13138.47
-48603.40,-62407.50,-96370.70,-96391.58,-94097.80,-60075.27,13125.70
-48672.80,-62449.81,-96374.86,-96393.73,-94096.23,-60074.89,13119.65
-48594.19,-62391.92,-96315.50,-96379.69,-94093.42,-60063.85,13123.87
-48514.75,-62348.11,-96305.39,-96392.45,-94113.45,-60076.30,13137.57
-48610.57,-62422.09,-96392.84,-96420.39,-94133.43,-60097.74,13156.42
-48705.10,-62482.64,-96411.79,-96420.02,-94125.02,-60091.25,13169.40
-48637.42,-62421.13,-96336.40,-96390.71,-94103.23,-60071.52,13176.15
-48517.43,-62337.05,-96285.81,-96371.71,-94093.64,-60067.11,13180.00
-48585.25,-62397.93,-96365.05,-96400.03,-94115.28,-60081.42,13185.81
-48699.98,-62475.11,-96413.30,-96412.44,-94121.34,-60075.14,13188.47
-48662.96,-62442.64,-96359.30,-96396.32,-94113.16,-60068.70,13185.88
-48529.46,-62349.50,-96293.46,-96374.26,-94098.92,-60059.79,13183.19
-48555.88,-62380.23,-96346.45,-96399.52,-94114.85,-60078.49,13186.77
-48687.17,-62469.57,-96418.47,-96430.25,-94133.63,-60098.96,13189.34
-48678.30,-62452.16,-96378.98,-96412.55,-94121.12,-60084.71,13185.58
-48553.64,-62367.22,-96308.68,-96387.47,-94105.60,-60069.77,13168.60
-48555.05,-62381.91,-96350.79,-96412.81,-94125.98,-60092.80,13133.17
-48684.58,-62475.94,-96429.34,-96443.30,-94146.20,-60113.43,13113.25
-48692.96,-62466.95,-96392.16,-96418.94,-94122.01,-60090.92,13109.21
-48545.57,-62348.87,-96287.49,-96362.99,-94075.52,-60048.27,13069.94
-48462.11,-62291.05,-96260.27,-96332.02,-94046.21,-60023.44,12985.47
-48552.66,-62341.94,-96304.56,-96321.09,-94022.86,-59999.79,12887.61
-48565.54,-62325.18,-96254.55,-96278.44,-93977.15,-59960.14,12855.61
-48409.50,-62197.95,-96122.42,-96201.13,-93909.04,-59898.34,12947.09
-48300.55,-62124.04,-96083.42,-96174.70,-93885.70,-59877.35,13071.32
-48441.30,-62239.14,-96203.47,-96236.37,-93938.43,-59934.46,13168.66
-48551.50,-62319.03,-96252.04,-96267.41,-93973.39,-59952.61,13305.61
-48499.51,-62291.88,-96214.35,-96282.75,-93998.41,-59977.73,13419.41
-48432.54,-62263.84,-96222.47,-96314.09,-94035.64,-60009.34,13415.76
-48549.82,-62363.02,-96336.59,-96373.37,-94084.57,-60058.06,13393.23
-48682.19,-62457.52,-96398.80,-96412.66,-94117.25,-60086.49,13339.88
-48634.02,-62423.57,-96345.90,-96406.47,-94117.00,-60083.41,13267.55
-48523.11,-62353.48,-96307.74,-96403.49,-94118.30,-60089.00,13222.93
-48582.54,-62403.52,-96382.98,-96428.75,-94134.91,-60104.04,13194.75
-48695.87,-62473.66,-96428.24,-96431.73,-94127.98,-60101.18,13183.57
-48660.59,-62438.97,-96366.37,-96408.91,-94110.92,-60079.07,13178.66
-48533.17,-62352.67,-96301.91,-96389.01,-94103.95,-60069.33,13179.33
-48553.39,-62378.71,-96358.55,-96411.38,-94123.33,-60088.84,13179.44
-48684.64,-62467.13,-96427.59,-96429.55,-94135.82,-60098.12,13176.89
-48684.24,-62458.21,-96387.18,-96418.07,-94125.56,-60094.43,13173.87
-48554.67,-62362.04,-96312.10,-96398.91,-94115.70,-60088.24,13173.94
-48533.14,-62358.19,-96341.89,-96410.71,-94123.30,-60097.09,13175.53
-48671.19,-62458.26,-96429.67,-96442.68,-94143.98,-60119.24,13175.39
-48699.73,-62469.41,-96409.04,-96433.67,-94137.84,-60108.89,13175.37
-48579.19,-62380.97,-96325.33,-96401.55,-94118.03,-60085.78,13172.87
-48518.62,-62344.33,-96320.08,-96396.97,-94110.95,-60084.32,13165.58
-48647.03,-62440.69,-96411.72,-96429.63,-94134.95,-60105.61,13162.52
-48708.00,-62471.94,-96408.21,-96425.71,-94128.87,-60101.69,13160.62
-48587.75,-62379.05,-96312.21,-96387.96,-94097.76,-60076.59,13160.21
-48496.67,-62324.53,-96291.55,-96386.02,-94097.35,-60083.61,13161.47
-48613.75,-62418.72,-96393.62,-96431.55,-94133.12,-60112.09,13155.86
-48705.25,-62476.72,-96418.36,-96442.30,-94139.71,-60114.03,13150.63
-48622.46,-62413.49,-96345.45,-96416.99,-94122.88,-60101.83,13154.25
-48513.77,-62344.07,-96308.88,-96410.09,-94120.06,-60101.96,13152.01
-48604.54,-62419.05,-96402.60,-96448.87,-94148.16,-60128.40,13149.11
-48710.44,-62486.11,-96439.86,-96457.50,-94148.25,-60124.25,13144.32
-48648.61,-62432.18,-96366.77,-96426.38,-94127.51,-60102.61,13139.43
-48520.98,-62348.42,-96309.57,-96411.03,-94120.82,-60096.04,13145.11
-48565.73,-62393.35,-96379.02,-96433.89,-94138.08,-60111.28,13142.11
-48682.48,-62473.46,-96429.80,-96441.98,-94139.42,-60112.09,13129.57
-48659.95,-62442.93,-96381.77,-96424.46,-94129.77,-60098.95,13121.46
-48537.75,-62360.70,-96318.72,-96409.73,-94123.77,-60087.77,13117.57
-48537.19,-62366.50,-96352.53,-96413.55,-94122.77,-60085.93,13112.36
-48670.30,-62459.69,-96420.70,-96437.54,-94136.13,-60098.83,13105.48
-48674.30,-62450.48,-96379.11,-96422.38,-94125.00,-60080.48,13099.02
-48548.19,-62361.45,-96305.08,-96400.95,-94114.19,-60062.18,13089.43
-48531.94,-62363.20,-96343.99,-96421.82,-94131.89,-60074.49,13081.58
-48659.72,-62450.97,-96421.96,-96440.64,-94138.50,-60078.27,13072.28
-48690.52,-62458.64,-96395.00,-96424.33,-94122.03,-60061.80,13058.89
-48572.48,-62377.52,-96314.96,-96406.52,-94114.56,-60052.45,13043.09
-48504.94,-62341.56,-96322.63,-96404.91,-94118.32,-60048.25,13026.66
-48634.62,-62439.51,-96420.26,-96440.53,-94145.37,-60075.27,13015.33
-48706.89,-62487.74,-96430.48,-96452.16,-94153.23,-60090.41,13000.42
-48613.48,-62411.97,-96361.09,-96424.91,-94139.98,-60070.64,12990.41
-48512.05,-62342.86,-96329.65,-96403.30,-94122.52,-60046.48,12978.38
-48616.72,-62422.21,-96412.64,-96434.41,-94141.86,-60066.67,12968.73
-48704.72,-62473.44,-96428.30,-96435.16,-94136.58,-60055.36,12961.80
-48626.11,-62407.54,-96353.94,-96405.35,-94113.67,-60030.97,12957.46
-48509.90,-62330.43,-96306.65,-96390.20,-94106.02,-60025.21,12948.43
-48583.28,-62393.02,-96381.55,-96417.47,-94127.93,-60044.16,12942.53
-48698.04,-62468.39,-96426.47,-96432.64,-94135.11,-60054.57,12940.79
-48654.85,-62431.41,-96366.01,-96415.38,-94124.34,-60047.36,12944.23
-48517.45,-62336.78,-96298.60,-96389.73,-94107.34,-60033.05,12953.77
-48562.38,-62379.52,-96369.30,-96416.98,-94129.48,-60051.87,12961.66
-48694.70,-62468.23,-96430.20,-96436.82,-94140.36,-60061.21,12969.24
-48668.31,-62436.11,-96374.35,-96412.88,-94123.23,-60045.48,12986.81
-48535.94,-62347.30,-96305.13,-96394.13,-94115.23,-60039.60,12999.13
-48548.75,-62365.95,-96359.20,-96422.72,-94138.66,-60058.31,13018.97
-48685.18,-62456.74,-96434.84,-96446.70,-94150.59,-60072.99,13042.98
-48690.37,-62452.49,-96391.91,-96426.74,-94132.34,-60057.10,13068.73
-48563.25,-62365.25,-96313.09,-96398.73,-94117.78,-60038.48,13093.23
-48525.01,-62346.99,-96328.41,-96401.59,-94119.52,-60041.05,13119.51
-48654.65,-62441.32,-96410.58,-96428.64,-94135.35,-60056.92,13143.65
-48693.41,-62459.80,-96392.07,-96420.95,-94127.69,-60051.58,13162.18
-48580.93,-62376.50,-96318.80,-96394.04,-94113.83,-60037.54,13185.38
-48525.39,-62348.65,-96330.45,-96404.30,-94127.46,-60045.97,13204.27
-48650.74,-62441.36,-96421.87,-96438.30,-94148.49,-60067.61,13218.40
-48724.72,-62483.90,-96427.30,-96444.78,-94146.57,-60076.59,13229.59
-48620.50,-62407.90,-96344.93,-96418.29,-94131.33,-60058.22,13245.24
-48530.17,-62353.83,-96329.22,-96421.96,-94141.48,-60063.89,13263.14
-48634.18,-62433.25,-96416.19,-96451.66,-94161.50,-60074.78,13273.40
-48726.62,-62491.65,-96433.09,-96451.98,-94152.61,-60074.27,13281.92
-48652.93,-62429.09,-96359.46,-96430.49,-94139.71,-60065.42,13288.31
-48533.17,-62345.96,-96308.88,-96413.45,-94130.10,-60057.01,13296.76
-48600.34,-62403.61,-96379.60,-96436.02,-94146.59,-60068.39,13299.89
-48711.76,-62475.45,-96417.66,-96441.13,-94148.36,-60063.94,13294.84
-48665.71,-62433.16,-96357.34,-96419.09,-94132.16,-60054.53,13300.47
-48528.00,-62339.21,-96290.87,-96398.31,-94118.19,-60045.66,13303.40
-48566.05,-62374.26,-96357.85,-96418.96,-94132.47,-60060.99,13308.43
-48703.62,-62469.10,-96423.68,-96443.66,-94144.07,-60073.82,13304.90
-48687.51,-62448.78,-96376.61,-96427.19,-94129.32,-60064.03,13307.58
-48550.36,-62356.02,-96304.25,-96404.84,-94117.56,-60050.39,13306.91
-48549.93,-62369.39,-96353.90,-96426.23,-94136.98,-60064.79,13308.63
-48687.57,-62466.24,-96434.14,-96453.90,-94151.60,-60081.49,13308.88
-48698.84,-62463.42,-96400.14,-96439.15,-94138.77,-60072.46,13313.24
-48571.39,-62376.83,-96319.95,-96414.05,-94127.51,-60062.58,13314.64
-48534.73,-62356.13,-96345.38,-96429.16,-94144.63,-60071.50,13318.62
-48657.98,-62445.72,-96422.67,-96449.72,-94153.61,-60080.53,13316.36
-48712.34,-62473.48,-96415.59,-96446.37,-94147.49,-60084.55,13314.78
-48594.99,-62386.98,-96329.91,-96416.10,-94129.49,-60074.74,13318.04
-48523.56,-62347.86,-96330.09,-96422.09,-94137.07,-60083.05,13317.82
-48636.72,-62432.93,-96415.81,-96444.45,-94148.61,-60090.18,13319.96
-48718.89,-62481.86,-96422.12,-96441.34,-94145.50,-60080.70,13322.26
-48627.76,-62412.91,-96340.30,-96414.38,-94131.35,-60062.18,13322.20
-48521.52,-62346.77,-96310.18,-96410.47,-94129.70,-60069.51,13322.13
-48623.00,-62429.20,-96402.94,-96443.51,-94154.13,-60081.20,13328.21
-48726.67,-62492.55,-96430.88,-96450.03,-94153.45,-60084.91,13328.97
-48647.81,-62424.20,-96346.09,-96411.84,-94122.95,-60055.71,13333.42
-48526.89,-62351.57,-96296.77,-96404.28,-94122.32,-60054.98,13331.32
-48597.34,-62406.87,-96382.44,-96441.38,-94151.45,-60080.05,13334.96
-48722.53,-62487.74,-96436.38,-96455.06,-94154.13,-60087.34,13338.38
-48669.67,-62439.98,-96359.28,-96420.66,-94125.88,-60060.19,13335.12
-48536.45,-62350.59,-96297.86,-96408.79,-94121.38,-60057.37,13345.02
-48564.86,-62382.44,-96355.55,-96433.18,-94142.57,-60073.04,13343.61
-48701.61,-62476.21,-96422.94,-96455.35,-94155.13,-60083.41,13347.48
-48695.20,-62459.11,-96381.70,-96437.58,-94140.27,-60070.27,13352.73
-48552.21,-62357.09,-96295.76,-96405.09,-94115.98,-60049.77,13355.70
-48542.54,-62365.97,-96336.48,-96428.84,-94138.13,-60073.66,13355.57
-48683.46,-62465.82,-96424.33,-96457.92,-94157.39,-60093.78,13354.59
-48714.53,-62477.08,-96406.69,-96451.53,-94153.73,-60091.50,13361.83
-48593.52,-62387.61,-96330.45,-96425.38,-94137.84,-60076.52,13366.59
-48531.85,-62351.02,-96327.09,-96419.77,-94135.46,-60069.84,13369.54
-48659.72,-62444.20,-96414.70,-96446.90,-94153.39,-60081.51,13372.91
-48728.57,-62488.25,-96422.83,-96455.40,-94156.99,-60085.27,13370.61
-48620.03,-62403.79,-96348.29,-96431.73,-94137.09,-60077.00,13375.53
-48536.12,-62352.58,-96333.55,-96429.13,-94136.36,-60070.73,13378.61
-48643.36,-62436.18,-96418.52,-96455.87,-94153.13,-60083.21,13379.84
-48720.48,-62481.68,-96428.38,-96450.59,-94146.35,-60077.64,13383.71
-48636.99,-62419.28,-96354.01,-96427.68,-94132.60,-60067.67,13385.74
-48537.23,-62359.00,-96325.11,-96425.13,-94138.73,-60071.45,13386.46
-48623.47,-62423.64,-96400.39,-96445.78,-94149.50,-60087.90,13393.21
-48717.55,-62479.65,-96414.16,-96443.70,-94142.33,-60080.46,13392.41
-48655.95,-62429.85,-96350.68,-96427.77,-94134.62,-60072.48,13395.09
-48530.11,-62345.29,-96296.88,-96414.78,-94127.13,-60073.02,13401.73
-48579.05,-62388.32,-96362.13,-96435.80,-94139.30,-60086.02,13403.80
-48711.13,-62478.69,-96419.99,-96457.70,-94152.63,-60099.93,13400.16
-48670.96,-62443.22,-96356.45,-96434.19,-94135.89,-60085.55,13402.17
-48538.44,-62355.02,-96294.20,-96417.80,-94129.54,-60078.71,13402.91
-48563.45,-62386.64,-96355.48,-96442.61,-94148.83,-60094.61,13405.17
-48702.15,-62477.04,-96427.86,-96469.41,-94165.84,-60108.06,13406.71
-48705.50,-62470.87,-96389.97,-96457.03,-94155.85,-60098.95,13412.10
-48583.82,-62387.34,-96325.24,-96437.52,-94149.81,-60094.29,13415.47
-48571.16,-62389.73,-96362.97,-96455.66,-94166.80,-60104.09,13417.84
-48702.17,-62480.05,-96439.03,-96479.67,-94175.63,-60116.73,13418.04
-48735.21,-62495.61,-96420.93,-96471.49,-94168.63,-60109.52,13414.80
-48606.93,-62406.11,-96340.73,-96439.70,-94149.59,-60083.81,13415.54
-48557.35,-62382.98,-96355.04,-96452.89,-94161.48,-60099.01,13421.75
-48681.90,-62471.11,-96439.17,-96475.89,-94174.73,-60112.69,13425.44
-48743.52,-62502.80,-96433.47,-96462.88,-94160.14,-60101.25,13427.45
-48640.55,-62429.56,-96354.08,-96436.42,-94146.26,-60090.47,13429.40
-48562.27,-62386.55,-96347.91,-96446.34,-94160.14,-60097.07,13432.55
-48671.97,-62470.26,-96435.95,-96470.10,-94175.59,-60108.78,13433.35
-48757.07,-62522.05,-96448.00,-96470.75,-94169.21,-60106.61,13434.27
-48679.15,-62459.06,-96381.01,-96449.74,-94155.85,-60089.40,13435.70
-48566.92,-62389.84,-96337.55,-96440.87,-94154.15,-60088.33,13438.52
-48650.07,-62452.20,-96420.55,-96473.61,-94178.71,-60117.20,13440.62
-48758.74,-62520.11,-96454.16,-96481.39,-94176.91,-60122.19,13438.36
-48697.12,-62469.82,-96380.63,-96461.25,-94159.05,-60120.20,13440.15
-48566.92,-62381.21,-96323.63,-96446.37,-94149.84,-60107.77,13441.89
-48613.23,-62421.00,-96386.93,-96466.30,-94164.21,-60116.82,13447.99
-48744.77,-62508.26,-96442.37,-96484.21,-94176.97,-60131.36,13444.75
-48719.96,-62479.00,-96390.80,-96463.55,-94158.28,-60115.30,13443.86
-48580.84,-62381.14,-96315.50,-96438.45,-94139.38,-60096.75,13449.40
-48593.45,-62401.69,-96367.09,-96457.97,-94155.63,-60110.30,13449.45
-48730.94,-62500.10,-96441.98,-96484.56,-94170.69,-60128.67,13449.02
-48728.21,-62487.99,-96395.41,-96464.91,-94155.20,-60121.77,13450.85
-48596.67,-62398.27,-96323.70,-96444.13,-94149.43,-60108.62,13456.02
-48564.28,-62384.14,-96348.84,-96448.31,-94156.20,-60108.22,13463.15
-48698.39,-62481.21,-96432.06,-96473.63,-94167.38,-60121.56,13464.29
-48743.70,-62508.48,-96422.90,-96466.21,-94162.45,-60111.91,13462.70
-48624.96,-62416.17,-96342.97,-96432.95,-94144.90,-60092.89,13461.43
-48568.26,-62388.30,-96349.07,-96442.23,-94153.97,-60104.60,13465.23
-48689.59,-62477.88,-96432.28,-96466.08,-94168.27,-60115.26,13464.11
-48759.05,-62517.85,-96436.27,-96463.22,-94160.79,-60108.42,13465.00
-48665.42,-62451.35,-96368.56,-96450.37,-94155.27,-60113.00,13465.79
-48567.97,-62392.23,-96349.80,-96451.48,-94153.59,-60118.66,13467.84
-48657.42,-62458.46,-96425.58,-96467.80,-94156.02,-60113.52,13463.77
-48749.11,-62513.78,-96441.25,-96468.94,-94149.27,-60110.01,13461.85
-48669.20,-62449.01,-96365.43,-96441.11,-94129.67,-60090.47,13461.54
-48548.93,-62370.39,-96320.16,-96430.49,-94123.57,-60087.54,13456.91
-48631.76,-62439.04,-96410.23,-96465.70,-94148.72,-60114.48,13457.60
-48749.93,-62515.17,-96454.21,-96484.70,-94158.38,-60133.81,13451.41
-48696.61,-62465.10,-96389.13,-96455.38,-94136.88,-60109.83,13455.21
-48553.71,-62368.72,-96316.14,-96426.14,-94122.43,-60087.32,13460.58
-48600.56,-62414.88,-96388.92,-96455.20,-94148.05,-60115.46,13461.40
-48729.64,-62503.68,-96442.79,-96471.63,-94154.04,-60124.71,13462.03
-48697.32,-62462.89,-96377.92,-96441.56,-94128.31,-60100.20,13451.08
-48557.42,-62366.95,-96304.74,-96419.37,-94113.54,-60091.55,13439.14
-48575.91,-62394.04,-96362.79,-96455.69,-94145.21,-60125.39,13437.29
-48717.84,-62495.59,-96444.02,-96487.91,-94169.59,-60147.27,13451.91
-48726.78,-62491.09,-96411.07,-96471.06,-94157.59,-60124.11,13464.76
-48604.67,-62402.25,-96340.44,-96447.41,-94145.90,-60116.18,13479.42
-48566.98,-62386.62,-96356.67,-96454.37,-94152.36,-60117.45,13494.15
-48693.09,-62477.77,-96435.80,-96479.94,-94164.03,-60122.01,13498.06
-48747.39,-62510.03,-96434.63,-96480.45,-94165.20,-60123.71,13502.67
-48637.33,-62430.48,-96357.98,-96452.60,-94148.23,-60113.74,13501.26
-48567.03,-62396.50,-96352.82,-96456.05,-94155.16,-60118.12,13497.12
-48691.53,-62488.97,-96445.13,-96486.82,-94174.27,-60138.68,13504.25
-48768.46,-62531.75,-96451.82,-96488.39,-94169.21,-60138.19,13506.73
-48668.66,-62458.53,-96373.43,-96460.05,-94146.46,-60117.38,13508.52
-48550.94,-62376.09,-96330.70,-96438.03,-94127.64,-60099.91,13506.91
-48657.82,-62459.58,-96425.51,-96474.53,-94154.41,-60123.78,13490.75
-48769.02,-62534.39,-96457.95,-96493.41,-94165.86,-60134.62,13460.80
-48698.37,-62479.09,-96390.76,-96477.48,-94158.20,-60129.03,13438.92
-48572.89,-62392.75,-96341.96,-96460.58,-94150.53,-60122.52,13424.79
-48626.29,-62433.38,-96399.74,-96463.91,-94149.23,-60118.43,13384.09
-48713.05,-62481.39,-96409.24,-96442.77,-94120.58,-60091.79,13278.63
-48626.04,-62399.09,-96310.91,-96381.41,-94064.07,-60041.37,13202.12
-48462.63,-62274.68,-96215.85,-96329.00,-94016.58,-60006.05,13167.70
-48455.38,-62262.08,-96234.78,-96304.21,-93986.42,-59979.45,13230.78
-48550.04,-62312.21,-96250.52,-96280.05,-93953.99,-59945.01,13336.97
-48558.07,-62316.71,-96220.81,-96291.13,-93971.16,-59965.88,13430.78
-48455.38,-62261.05,-96187.98,-96311.36,-94002.43,-59999.10,13554.95
-48479.05,-62299.72,-96260.49,-96356.89,-94047.02,-60026.10,13686.98
-48647.54,-62428.38,-96369.77,-96414.29,-94092.93,-60068.61,13718.25
-48694.64,-62462.89,-96370.84,-96430.16,-94110.48,-60090.63,13692.07
-48593.81,-62396.28,-96318.05,-96430.14,-94123.38,-60101.92,13627.10
-48566.96,-62391.47,-96355.20,-96453.09,-94147.82,-60127.38,13564.27
-48708.11,-62495.74,-96448.60,-96484.52,-94166.69,-60149.05,13524.64
-48748.80,-62509.02,-96426.52,-96468.41,-94147.65,-60128.45,13512.99
-48628.48,-62419.90,-96339.73,-96437.31,-94127.46,-60105.56,13500.07
-48563.99,-62387.32,-96347.55,-96455.53,-94145.81,-60124.71,13497.61
-48682.88,-62475.61,-96436.58,-96483.78,-94160.79,-60136.90,13495.49
-48767.28,-62524.80,-96448.60,-96483.16,-94151.29,-60132.65,13491.78
-48677.16,-62455.80,-96371.47,-96456.52,-94131.24,-60114.68,13488.52
-48564.53,-62386.22,-96338.67,-96452.45,-94134.68,-60119.39,13487.22
-48664.13,-62465.48,-96435.68,-96486.55,-94162.84,-60147.74,13487.58
-48769.02,-62529.59,-96461.66,-96489.52,-94158.53,-60143.65,13484.61
-48701.14,-62472.70,-96389.64,-96464.80,-94142.52,-60132.05,13483.02
-48572.82,-62389.04,-96335.28,-96451.53,-94142.03,-60131.46,13480.09
-48636.95,-62445.34,-96408.30,-96475.98,-94162.04,-60143.54,13480.76
-48759.26,-62527.24,-96457.14,-96487.78,-94166.38,-60144.96,13481.37
-48714.60,-62488.90,-96391.58,-96461.84,-94146.30,-60125.97,13478.77
-48568.02,-62379.85,-96316.32,-96432.82,-94126.37,-60107.97,13474.55
-48596.31,-62408.66,-96376.61,-96456.60,-94141.16,-60135.38,13478.64
-48731.85,-62505.29,-96440.51,-96480.79,-94155.45,-60159.52,13474.32
-48722.31,-62491.23,-96400.26,-96459.93,-94142.26,-60119.69,13472.78
-48588.09,-62397.78,-96324.91,-96436.91,-94126.23,-60109.23,13470.79
-48579.88,-62402.00,-96365.50,-96459.20,-94141.01,-60132.96,13468.65
-48706.37,-62488.75,-96434.66,-96474.84,-94141.55,-60137.50,13463.21
-48734.31,-62498.74,-96406.13,-96464.36,-94131.10,-60128.40,13459.01
-48596.74,-62397.84,-96314.05,-96429.38,-94106.74,-60107.23,13457.14
-48548.77,-62372.79,-96330.63,-96439.30,-94116.73,-60118.61,13458.21
-48678.45,-62467.31,-96413.27,-96467.80,-94133.50,-60133.03,13451.23
-48733.89,-62496.23,-96404.73,-96465.68,-94130.75,-60131.09,13446.99
-48620.88,-62412.08,-96325.20,-96438.63,-94117.25,-60114.77,13448.35
-48544.12,-62366.98,-96321.98,-96439.88,-94119.93,-60113.14,13442.94
-48661.07,-62457.03,-96408.93,-96463.22,-94133.12,-60121.54,13434.38
-48739.14,-62497.49,-96411.54,-96463.38,-94126.81,-60116.69,13427.21
-48646.71,-62428.51,-96336.06,-96434.81,-94105.69,-60092.04,13423.03
-48534.93,-62358.73,-96303.38,-96428.40,-94109.23,-60083.95,13419.38
-48625.48,-62430.90,-96394.82,-96462.02,-94134.91,-60098.95,13406.64
-48732.43,-62496.91,-96425.69,-96463.30,-94131.41,-60089.80,13395.87
-48659.90,-62435.89,-96344.06,-96429.02,-94108.24,-60060.52,13386.33
-48544.97,-62365.95,-96305.66,-96432.95,-94117.29,-60069.35,13378.93
-48593.18,-62406.31,-96373.88,-96448.42,-94126.27,-60074.31,13363.37
-48724.05,-62494.85,-96426.41,-96465.66,-94136.78,-60076.08,13347.79
-48678.99,-62449.16,-96359.10,-96433.34,-94114.09,-60049.14,13332.46
-48536.23,-62347.53,-96286.39,-96406.89,-94097.48,-60041.16,13318.87
-48556.86,-62371.38,-96344.30,-96427.34,-94114.45,-60046.26,13310.80
-48691.87,-62464.50,-96411.54,-96445.18,-94121.00,-60054.82,13296.45
-48688.56,-62451.91,-96371.69,-96428.26,-94107.26,-60046.44,13280.22
-48553.91,-62352.16,-96296.19,-96409.20,-94097.89,-60040.25,13269.02
-48539.80,-62353.86,-96338.30,-96427.97,-94108.42,-60053.86,13265.42
-48664.20,-62440.31,-96403.95,-96446.16,-94109.85,-60054.64,13259.86
-48696.61,-62453.45,-96381.08,-96441.34,-94104.57,-60049.88,13255.01
-48576.62,-62367.64,-96305.08,-96420.26,-94091.90,-60041.34,13252.97
-48515.15,-62334.18,-96308.05,-96424.51,-94096.64,-60044.07,13251.59
-48642.45,-62428.02,-96397.95,-96454.68,-94116.40,-60062.42,13254.61
-48717.35,-62472.83,-96405.62,-96454.08,-94118.55,-60060.72,13266.07
-48605.86,-62390.49,-96320.46,-96418.13,-94096.64,-60036.58,13274.66
-48508.76,-62330.18,-96302.80,-96411.84,-94096.08,-60034.01,13292.43
-48624.79,-62417.94,-96398.60,-96441.72,-94117.65,-60050.13,13306.57
-48722.15,-62480.16,-96417.89,-96447.17,-94121.18,-60054.00,13325.95
-48632.16,-62413.51,-96338.77,-96417.13,-94104.69,-60036.09,13349.89
-48517.23,-62341.11,-96304.73,-96408.13,-94105.94,-60033.18,13374.68
-48598.82,-62411.34,-96381.63,-96433.96,-94128.76,-60045.55,13397.61
-48714.30,-62480.14,-96423.21,-96444.45,-94132.52,-60052.05,13418.69
-48649.55,-62426.21,-96347.33,-96415.14,-94109.60,-60037.36,13447.30
-48532.63,-62351.66,-96304.86,-96410.65,-94110.09,-60043.11,13471.40
-48587.80,-62402.83,-96380.52,-96443.02,-94135.44,-60063.45,13495.07
-48724.57,-62494.29,-96443.80,-96464.41,-94148.83,-60072.17,13515.52
-48704.16,-62470.82,-96393.26,-96453.12,-94141.07,-60071.52,13530.67
-48567.72,-62378.26,-96326.72,-96436.11,-94133.38,-60063.02,13547.57
-48578.63,-62398.89,-96379.02,-96457.09,-94153.86,-60067.47,13560.78
-48714.08,-62490.38,-96450.16,-96476.20,-94161.73,-60076.59,13569.72
-48727.72,-62490.98,-96416.91,-96466.68,-94153.08,-60074.87,13581.23
-48589.02,-62394.16,-96330.54,-96437.42,-94134.30,-60063.14,13586.98
-48561.93,-62385.50,-96357.27,-96449.16,-94143.06,-60074.51,13594.38
-48693.09,-62477.53,-96433.89,-96469.52,-94153.19,-60084.10,13598.67
-48737.69,-62503.63,-96419.70,-96470.69,-94151.60,-60090.56,13604.79
-48622.35,-62416.71,-96347.05,-96452.29,-94140.34,-60075.59,13606.98
-48556.44,-62376.59,-96349.52,-96455.69,-94144.45,-60075.09,13608.55
-48682.03,-62467.16,-96435.44,-96484.03,-94157.15,-60089.96,13609.37
-48749.98,-62503.34,-96435.50,-96481.55,-94151.67,-60086.23,13614.89
-48652.82,-62433.36,-96361.85,-96455.02,-94138.33,-60074.80,13621.38
-48572.08,-62389.44,-96355.98,-96456.58,-94151.63,-60076.73,13623.16
-48673.13,-62467.40,-96430.48,-96475.31,-94164.12,-60082.47,13621.49
-48773.61,-62531.26,-96450.84,-96479.80,-94163.34,-60085.04,13623.83
-48692.36,-62467.96,-96373.12,-96452.18,-94144.25,-60070.76,13631.90
-48572.71,-62389.68,-96328.73,-96441.45,-94138.37,-60064.86,13630.14
-48644.26,-62450.53,-96410.40,-96470.08,-94159.52,-60082.07,13628.30
-48769.79,-62533.05,-96463.29,-96486.42,-94164.19,-60091.01,13629.62
-48718.00,-62486.22,-96395.90,-96460.72,-94145.39,-60075.61,13629.45
-48574.09,-62388.99,-96329.49,-96437.00,-94132.27,-60063.81,13627.25
-48623.40,-62436.85,-96407.36,-96468.80,-94158.27,-60091.14,13637.11
-48761.54,-62534.17,-96478.71,-96494.00,-94176.10,-60107.66,13641.34
-48747.01,-62517.40,-96434.77,-96475.47,-94165.44,-60096.91,13641.40
-48599.04,-62408.08,-96348.22,-96445.92,-94142.73,-60087.99,13640.96
-48601.39,-62420.06,-96390.93,-96465.05,-94156.74,-60092.73,13639.68
-48739.21,-62518.90,-96465.03,-96491.92,-94172.01,-60107.17,13641.27
-48748.57,-62514.96,-96427.92,-96476.32,-94157.55,-60096.04,13643.75
-48612.02,-62419.28,-96339.03,-96445.61,-94138.03,-60083.05,13640.02
-48576.33,-62403.59,-96360.53,-96454.75,-94146.35,-60089.49,13642.81
-48719.83,-62503.68,-96448.60,-96485.64,-94162.62,-60110.63,13646.77
-48766.32,-62523.73,-96432.95,-96481.77,-94157.77,-60108.00,13653.25
-48633.57,-62423.77,-96343.10,-96444.51,-94135.42,-60078.16,13650.23
-48553.29,-62377.95,-96337.52,-96447.46,-94142.08,-60087.77,13652.85
-48684.00,-62478.18,-96437.02,-96487.80,-94170.09,-60117.81,13655.48
-48759.01,-62521.94,-96438.90,-96482.33,-94160.45,-60110.01,13659.80
-48658.20,-62441.99,-96352.45,-96446.50,-94134.01,-60082.31,13664.81
-48556.05,-62377.39,-96325.22,-96449.61,-94138.75,-60089.85,13664.67
-48664.29,-62464.90,-96421.31,-96484.81,-94165.70,-60109.79,13662.50
-48766.97,-62528.31,-96446.14,-96487.34,-94163.23,-60106.61,13666.91
-48680.98,-62458.02,-96363.42,-96458.50,-94141.39,-60089.36,13675.53
-48568.02,-62388.05,-96335.86,-96464.02,-94150.06,-60102.54,13674.42
-48643.41,-62448.78,-96425.11,-96490.89,-94170.24,-60117.07,13676.21
-48767.28,-62530.43,-96470.13,-96502.45,-94176.28,-60118.05,13675.87
-48732.86,-62498.61,-96419.37,-96484.54,-94165.57,-60112.11,13681.68
-48596.42,-62407.45,-96349.56,-96461.16,-94150.33,-60098.41,13689.06
-48624.92,-62439.02,-96407.77,-96477.66,-94166.22,-60099.91,13690.62
-48761.43,-62530.84,-96472.36,-96491.07,-94171.65,-60105.02,13689.42
-48742.36,-62506.45,-96416.73,-96467.80,-94151.22,-60092.68,13691.56
-48608.43,-62416.57,-96344.30,-96453.34,-94145.14,-60089.96,13693.64
-48597.09,-62420.42,-96380.23,-96463.80,-94153.28,-60094.94,13698.45
-48737.57,-62519.93,-96459.76,-96487.94,-94164.84,-60111.15,13698.67
-48760.86,-62520.71,-96433.07,-96480.20,-94161.13,-60106.27,13697.37
-48631.23,-62428.18,-96356.40,-96454.75,-94147.94,-60082.09,13705.49
-48586.32,-62407.70,-96373.25,-96469.05,-94160.34,-60097.94,13710.20
-48723.14,-62506.09,-96463.15,-96499.48,-94180.01,-60117.38,13708.91
-48776.58,-62532.33,-96452.18,-96490.40,-94170.96,-60111.98,13713.38
-48649.44,-62439.35,-96361.66,-96457.07,-94149.57,-60093.09,13716.88
-48569.45,-62394.02,-96358.28,-96461.27,-94153.19,-60102.39,13716.44
-48681.18,-62479.27,-96436.40,-96484.52,-94165.93,-60120.25,13714.83
-48765.54,-62529.25,-96447.22,-96487.05,-94165.68,-60123.08,13722.05
-48672.96,-62458.62,-96373.19,-96464.56,-94148.79,-60111.66,13727.97
-48567.93,-62393.80,-96348.73,-96461.61,-94146.95,-60113.27,13729.33
-48658.90,-62466.44,-96433.18,-96487.27,-94163.59,-60125.54,13731.19
-48767.19,-62534.23,-96464.29,-96498.53,-94164.45,-60133.70,13729.60
-48690.59,-62471.76,-96389.30,-96471.35,-94146.82,-60117.79,13730.01
-48566.02,-62391.63,-96344.64,-96464.85,-94147.82,-60119.91,13732.11
-48626.87,-62443.86,-96415.84,-96490.11,-94166.42,-60132.14,13737.20
-48754.34,-62529.47,-96466.88,-96502.34,-94169.28,-60136.07,13738.99
-48713.12,-62485.24,-96399.41,-96470.75,-94147.89,-60106.19,13740.60
-48579.08,-62391.50,-96332.69,-96450.88,-94141.01,-60094.90,13740.71
-48604.96,-62419.75,-96387.73,-96469.03,-94156.20,-60112.49,13745.67
-48741.35,-62512.39,-96450.61,-96483.78,-94162.62,-60126.32,13751.93
-48739.34,-62500.37,-96405.28,-96464.56,-94147.60,-60115.44,13754.10
-48604.45,-62407.88,-96332.02,-96441.31,-94134.50,-60108.09,13755.33
-48586.86,-62409.33,-96368.18,-96454.01,-94148.77,-60116.29,13755.44
-48731.76,-62513.87,-96459.15,-96483.45,-94170.38,-60125.39,13757.81
-48755.72,-62515.97,-96425.02,-96462.10,-94149.12,-60105.43,13764.38
-48630.33,-62428.60,-96342.36,-96441.83,-94140.90,-60097.18,13763.82
-48587.04,-62411.25,-96368.90,-96459.80,-94158.28,-60113.11,13761.59
-48719.74,-62509.27,-96458.70,-96489.70,-94177.93,-60133.52,13764.34
-48776.54,-62538.14,-96451.84,-96485.73,-94172.48,-60128.71,13765.61
-48657.64,-62448.76,-96362.97,-96459.80,-94153.75,-60117.41,13772.43
-48568.68,-62392.84,-96352.42,-96462.98,-94155.83,-60124.09,13772.38
-48692.02,-62486.63,-96452.60,-96499.61,-94180.28,-60144.38,13774.22
-48778.55,-62541.32,-96459.24,-96497.93,-94170.91,-60136.41,13778.02
-48682.30,-62465.77,-96372.83,-96469.19,-94150.98,-60116.96,13776.70
-48574.88,-62395.45,-96342.59,-96469.08,-94155.63,-60121.36,13777.59
-48665.13,-62470.78,-96433.83,-96502.02,-94176.26,-60141.97,13783.85
-48781.16,-62542.66,-96470.33,-96507.12,-94173.57,-60140.12,13782.38
-48712.29,-62482.51,-96392.61,-96478.15,-94151.06,-60125.54,13784.30
-48587.26,-62400.68,-96347.82,-96470.95,-94152.98,-60126.68,13786.15
-48635.92,-62443.04,-96414.89,-96493.26,-94164.45,-60141.30,13787.16
-48762.32,-62527.06,-96465.81,-96508.26,-94171.74,-60145.12,13792.19
-48730.87,-62494.65,-96411.50,-96489.75,-94160.90,-60137.75,13791.09
-48589.74,-62397.02,-96340.27,-96464.76,-94150.22,-60127.33,13791.72
-48603.93,-62418.74,-96391.20,-96481.77,-94161.41,-60137.14,13790.91
-48753.15,-62525.29,-96473.05,-96512.80,-94181.64,-60163.79,13789.75
-48753.89,-62520.80,-96430.18,-96495.49,-94171.36,-60150.98,13789.75
-48607.55,-62409.58,-96343.57,-96461.77,-94145.79,-60124.65,13791.67
-48589.23,-62407.07,-96380.12,-96472.72,-94156.20,-60130.41,13789.80
-48729.98,-62511.55,-96462.33,-96504.91,-94178.65,-60150.24,13786.58
-48768.20,-62529.65,-96450.01,-96500.23,-94173.33,-60150.49,13784.77
-48639.25,-62438.39,-96363.82,-96469.63,-94151.45,-60132.47,13775.25
-48566.56,-62399.05,-96361.98,-96468.54,-94152.05,-60143.76,13779.42
-48695.78,-62495.41,-96452.24,-96499.30,-94173.46,-60155.92,13791.43
-48760.15,-62528.69,-96446.26,-96491.27,-94159.56,-60146.69,13792.57
-48657.45,-62453.97,-96363.42,-96469.21,-94145.14,-60134.89,13792.39
-48563.90,-62398.31,-96347.93,-96467.82,-94149.73,-60135.24,13787.11
-48670.48,-62479.70,-96432.46,-96493.75,-94163.67,-60150.40,13777.23
-48767.04,-62540.38,-96452.73,-96498.76,-94165.68,-60151.98,13770.64
-48692.87,-62487.45,-96384.79,-96481.66,-94158.38,-60137.81,13774.17
-48568.80,-62402.25,-96336.95,-96467.98,-94149.92,-60130.73,13792.90
-48650.38,-62464.34,-96414.45,-96493.08,-94167.67,-60150.02,13803.23
-48760.78,-62535.51,-96444.65,-96498.13,-94164.90,-60149.79,13815.75
-48704.98,-62488.52,-96380.56,-96473.73,-94148.02,-60138.91,13825.58
-48570.16,-62401.26,-96326.05,-96456.55,-94142.39,-60136.70,13834.63
-48621.28,-62450.70,-96399.09,-96478.53,-94158.71,-60148.45,13844.00
-48759.30,-62548.61,-96459.48,-96502.47,-94173.88,-60162.87,13837.16
-48727.34,-62514.45,-96399.77,-96474.87,-94152.88,-60150.00,13835.33
-48582.10,-62414.70,-96319.97,-96447.70,-94136.18,-60134.91,13832.00
-48591.57,-62431.57,-96372.65,-96464.00,-94153.08,-60140.88,13836.69
-48740.41,-62535.86,-96452.52,-96493.35,-94168.03,-60165.73,13837.45
-48744.77,-62527.15,-96411.61,-96475.00,-94147.04,-60146.02,13833.67
-48616.76,-62439.75,-96342.32,-96459.66,-94140.38,-60135.67,13807.48
-48595.95,-62444.34,-96380.02,-96479.05,-94158.62,-60154.29,13779.13
-48736.61,-62544.09,-96467.11,-96506.63,-94176.73,-60170.80,13767.42
-48775.77,-62554.53,-96448.76,-96493.35,-94163.29,-60159.52,13734.01
-48637.33,-62448.20,-96345.58,-96443.68,-94123.13,-60124.00,13624.19
-48538.64,-62374.22,-96311.59,-96409.80,-94090.70,-60086.52,13524.73
-48633.33,-62430.86,-96360.27,-96398.24,-94070.98,-60064.21,13463.33
-48661.80,-62428.06,-96315.56,-96359.69,-94027.95,-60027.26,13475.26
-48501.85,-62293.44,-96177.59,-96283.58,-93958.15,-59963.00,13574.97
-48402.88,-62236.84,-96154.34,-96291.09,-93970.73,-59979.65,13663.46
-48534.84,-62352.91,-96280.78,-96360.52,-94031.41,-60035.26,13777.75
-48641.44,-62424.60,-96319.61,-96375.71,-94039.69,-60041.70,13937.63
-48588.24,-62389.73,-96273.56,-96375.84,-94051.80,-60048.92,14025.90
-48484.13,-62333.07,-96249.94,-96391.02,-94074.04,-60074.09,14021.45
-48591.24,-62430.30,-96364.76,-96450.32,-94124.71,-60124.20,13958.28
-48741.31,-62532.94,-96437.41,-96489.68,-94157.28,-60159.02,13896.28
-48706.17,-62502.23,-96389.01,-96475.53,-94153.08,-60152.52,13855.13
-48566.23,-62408.28,-96319.12,-96447.35,-94137.12,-60132.83,13842.03
-48601.99,-62446.84,-96381.88,-96470.66,-94154.44,-60146.06,13833.07
-48749.24,-62549.54,-96460.60,-96500.59,-94170.49,-60164.55,13827.21
-48728.28,-62524.02,-96408.93,-96480.43,-94152.16,-60149.97,13824.29
-48586.30,-62426.21,-96334.20,-96457.67,-94139.35,-60133.90,13821.60
-48592.85,-62440.98,-96385.50,-96477.21,-94155.27,-60151.63,13824.98
-48735.88,-62542.19,-96460.94,-96499.34,-94169.02,-60156.97,13821.07
-48758.92,-62551.80,-96439.82,-96499.65,-94170.45,-60166.31,13814.32
-48620.77,-62453.16,-96355.46,-96469.77,-94147.65,-60154.04,13813.44
-48577.80,-62432.58,-96366.48,-96473.21,-94151.00,-60148.12,13812.24
-48721.48,-62539.93,-96458.28,-96509.38,-94176.08,-60173.96,13809.44
-48775.39,-62570.33,-96453.95,-96508.55,-94175.97,-60172.10,13804.24
-48656.21,-62484.75,-96369.48,-96473.66,-94152.97,-60146.57,13805.40
-48583.68,-62438.64,-96360.02,-96474.64,-94155.58,-60150.78,13810.09
-48704.05,-62527.89,-96448.98,-96503.23,-94176.99,-60170.00,13807.54
-48791.40,-62580.99,-96468.63,-96507.30,-94178.45,-60165.44,13801.96
-48683.95,-62499.88,-96381.44,-96473.16,-94158.30,-60136.11,13797.31
-48576.15,-62432.62,-96356.94,-96469.14,-94161.91,-60141.17,13797.20
-48681.61,-62514.12,-96449.77,-96500.55,-94183.97,-60160.03,13792.72
-48788.96,-62581.39,-96477.39,-96507.23,-94184.86,-60167.00,13791.61
-48719.09,-62525.20,-96412.05,-96486.38,-94170.22,-60158.73,13788.30
-48590.97,-62441.09,-96363.64,-96473.34,-94163.60,-60152.81,13786.98
-48652.88,-62492.73,-96431.93,-96492.90,-94174.89,-60161.04,13786.91
-48789.36,-62582.76,-96486.33,-96519.41,-94187.92,-60177.44,13776.81
-48746.85,-62539.42,-96420.66,-96500.59,-94170.53,-60165.42,13774.44
-48604.38,-62438.03,-96348.78,-96477.59,-94151.02,-60154.38,13775.74
-48622.60,-62462.86,-96391.02,-96491.80,-94156.09,-60164.70,13771.80
-48759.97,-62554.30,-96462.08,-96513.47,-94169.93,-60175.14,13766.42
-48749.76,-62527.98,-96409.59,-96485.75,-94145.86,-60148.86,13760.16
-48607.40,-62433.38,-96327.84,-96465.01,-94140.67,-60138.17,13751.51
-48598.88,-62441.09,-96371.60,-96483.58,-94155.65,-60150.18,13742.54
-48742.43,-62544.70,-96455.64,-96508.55,-94168.88,-60148.70,13737.54
-48762.14,-62544.67,-96424.20,-96489.62,-94150.95,-60128.22,13727.84
-48620.88,-62442.64,-96334.61,-96455.13,-94130.50,-60099.97,13718.34
-48572.60,-62419.77,-96352.06,-96463.30,-94139.82,-60102.32,13710.36
-48707.94,-62516.15,-96443.39,-96490.33,-94157.97,-60118.23,13701.37
-48765.11,-62545.10,-96435.64,-96485.82,-94154.59,-60106.32,13681.08
-48643.27,-62454.59,-96349.98,-96454.46,-94136.60,-60080.23,13666.06
-48561.82,-62407.19,-96345.11,-96453.74,-94140.98,-60076.88,13653.85
-48682.34,-62501.42,-96438.72,-96488.27,-94167.88,-60101.47,13642.19
-48764.55,-62549.72,-96447.80,-96482.11,-94158.11,-60079.18,13625.60
-48663.84,-62473.46,-96364.16,-96451.24,-94136.27,-60060.86,13610.96
-48547.81,-62401.24,-96331.10,-96440.51,-94131.93,-60054.64,13601.44
-48639.00,-62475.58,-96418.60,-96470.38,-94155.70,-60072.57,13588.12
-48751.84,-62541.88,-96453.30,-96477.48,-94156.54,-60076.01,13581.99
-48687.04,-62488.34,-96382.75,-96450.61,-94136.05,-60060.61,13573.23
-48565.29,-62405.66,-96331.99,-96442.88,-94133.01,-60055.83,13562.21
-48616.36,-62450.41,-96395.45,-96465.79,-94148.98,-60071.16,13561.38
-48746.49,-62534.10,-96450.39,-96478.15,-94152.09,-60076.46,13566.03
-48699.11,-62489.64,-96378.48,-96448.69,-94128.71,-60057.70,13566.55
-48568.59,-62398.96,-96322.96,-96437.09,-94123.55,-60056.36,13570.41
-48588.54,-62425.71,-96374.95,-96457.54,-94138.44,-60066.45,13579.94
-48723.65,-62518.83,-96440.04,-96475.71,-94144.96,-60076.43,13589.61
-48717.91,-62503.23,-96391.11,-96458.95,-94131.40,-60071.77,13603.52
-48577.16,-62404.77,-96313.09,-96436.22,-94119.70,-60055.36,13625.20
-48564.89,-62407.95,-96357.61,-96457.79,-94140.85,-60070.40,13651.30
-48713.41,-62514.92,-96446.41,-96488.81,-94163.78,-60086.20,13676.12
-48746.07,-62529.02,-96421.47,-96476.54,-94151.34,-60080.50,13699.05
-48614.91,-62428.40,-96334.77,-96444.78,-94132.45,-60059.29,13726.07
-48558.76,-62398.89,-96346.48,-96453.38,-94146.08,-60069.82,13751.53
-48690.50,-62497.69,-96438.52,-96483.73,-94163.70,-60087.95,13774.17
-48761.69,-62539.84,-96440.20,-96482.30,-94162.80,-60086.79,13792.61
-48650.85,-62458.80,-96362.81,-96453.32,-94150.73,-60070.85,13811.19
-48566.90,-62410.45,-96352.71,-96456.05,-94158.84,-60073.24,13832.49
-48681.07,-62497.82,-96439.64,-96486.82,-94181.73,-60095.88,13848.74
-48773.76,-62555.64,-96460.94,-96491.94,-94183.68,-60101.18,13859.58
-48690.30,-62489.98,-96387.71,-96465.39,-94168.90,-60089.24,13876.77
-48588.04,-62428.58,-96361.02,-96465.90,-94177.98,-60081.69,13884.23
-48677.71,-62501.71,-96448.29,-96498.83,-94202.67,-60099.14,13891.30
-48788.29,-62572.45,-96481.48,-96510.65,-94199.16,-60105.34,13897.67
-48732.08,-62523.28,-96418.94,-96491.38,-94184.17,-60091.63,13904.37
-48597.68,-62430.77,-96359.46,-96475.73,-94172.34,-60081.26,13908.44
-48645.04,-62474.71,-96430.61,-96508.15,-94193.04,-60098.83,13920.31
-48782.32,-62566.38,-96498.16,-96533.05,-94204.93,-60115.71,13920.89
-48752.02,-62536.38,-96440.55,-96513.82,-94189.29,-60105.49,13916.96
-48613.57,-62445.32,-96373.41,-96501.46,-94182.34,-60106.68,13925.23
-48627.70,-62461.99,-96424.82,-96518.09,-94196.62,-60114.99,13927.91
-48758.23,-62547.36,-96481.28,-96525.78,-94199.91,-60108.18,13925.87
-48759.93,-62534.19,-96434.77,-96504.23,-94181.13,-60105.89,13928.06
-48616.09,-62435.06,-96348.29,-96472.67,-94161.10,-60091.03,13931.82
-48587.04,-62432.02,-96380.85,-96487.25,-94176.44,-60107.48,13931.62
-48729.82,-62534.61,-96473.08,-96514.59,-94195.81,-60127.44,13934.26
-48771.37,-62548.61,-96454.97,-96495.52,-94179.56,-60109.83,13936.56
-48647.77,-62463.11,-96372.88,-96469.34,-94169.02,-60096.55,13934.21
-48579.55,-62430.25,-96374.17,-96470.55,-94176.99,-60097.76,13936.76
-48710.20,-62529.47,-96467.04,-96501.89,-94200.44,-60119.35,13938.73
-48779.48,-62566.53,-96467.65,-96497.08,-94192.51,-60114.43,13938.30
-48680.98,-62493.87,-96395.52,-96475.24,-94184.44,-60101.63,13938.75
-48587.59,-62437.63,-96378.91,-96471.55,-94187.79,-60099.52,13939.58
-48700.47,-62525.40,-96474.57,-96501.75,-94208.17,-60125.95,13939.42
-48793.97,-62580.12,-96485.03,-96494.91,-94196.69,-60116.13,13940.63
-48713.34,-62516.80,-96410.07,-96473.03,-94183.09,-60101.29,13946.46
-48595.77,-62442.28,-96372.27,-96466.46,-94178.94,-60097.63,13944.11
-48677.34,-62504.08,-96452.22,-96500.26,-94199.16,-60117.25,13941.54
-48798.44,-62587.70,-96496.41,-96521.24,-94206.72,-60125.92,13942.39
-48745.84,-62542.70,-96432.84,-96500.03,-94190.23,-60117.25,13945.39
-48603.89,-62443.42,-96366.39,-96477.99,-94173.75,-60108.40,13949.08
-48650.52,-62486.27,-96438.03,-96502.18,-94188.66,-60131.27,13955.04
-48792.25,-62585.38,-96505.98,-96523.52,-94203.59,-60138.48,13957.05
-48766.74,-62557.08,-96449.09,-96499.45,-94185.87,-60117.79,13951.98
-48628.59,-62462.37,-96378.91,-96483.36,-94179.92,-60112.46,13954.31
-48640.39,-62483.54,-96434.30,-96510.18,-94205.78,-60131.96,13954.89
-48779.15,-62578.33,-96505.40,-96528.17,-94210.77,-60139.54,13955.96
-48775.62,-62564.07,-96454.05,-96501.13,-94184.46,-60114.19,13961.41
-48642.69,-62471.38,-96378.15,-96481.34,-94175.05,-60109.14,13962.11
-48612.45,-62460.88,-96406.38,-96493.08,-94188.28,-60125.14,13964.05
-48748.75,-62555.96,-96483.52,-96509.82,-94198.27,-60130.57,13964.88
-48794.37,-62580.68,-96466.17,-96504.01,-94196.06,-60127.93,13966.15
-48671.68,-62497.91,-96384.45,-96477.75,-94183.14,-60119.33,13971.61
-48587.53,-62441.47,-96371.84,-96468.23,-94171.90,-60109.38,13975.61
-48725.62,-62545.75,-96474.40,-96503.66,-94195.92,-60127.53,13980.95
-48789.03,-62580.77,-96464.11,-96492.73,-94184.08,-60114.86,13985.69
-48687.93,-62506.59,-96389.01,-96467.89,-94172.57,-60104.24,13981.57
-48590.21,-62446.01,-96368.58,-96462.23,-94172.12,-60109.16,13982.87
-48696.11,-62527.98,-96454.30,-96492.68,-94190.05,-60129.83,13990.67
-48796.41,-62592.01,-96478.87,-96503.85,-94193.80,-60127.96,13989.58
-48721.01,-62532.29,-96411.54,-96480.88,-94178.11,-60118.75,13989.93
-48596.76,-62450.68,-96365.99,-96471.34,-94171.56,-60111.91,13991.95
-48684.55,-62523.48,-96456.87,-96510.07,-94200.35,-60138.86,13992.77
-48801.55,-62599.12,-96495.18,-96520.17,-94201.63,-60135.22,13995.90
-48760.98,-62561.68,-96443.23,-96506.49,-94190.72,-60124.34,13997.98
-48625.70,-62469.12,-96383.60,-96490.38,-94181.20,-60121.70,14001.07
-48661.45,-62508.20,-96444.91,-96514.59,-94196.55,-60139.98,13998.96
-48793.88,-62596.55,-96504.63,-96536.04,-94205.27,-60150.09,13999.66
-48776.11,-62568.16,-96453.72,-96518.12,-94188.68,-60138.75,14008.64
-48648.50,-62481.08,-96389.62,-96498.38,-94178.71,-60127.53,14014.28
-48654.52,-62499.77,-96439.82,-96519.99,-94202.79,-60140.65,14012.78
-48790.41,-62595.41,-96517.20,-96539.93,-94215.48,-60152.75,14009.89
-48794.82,-62584.64,-96474.17,-96511.05,-94193.34,-60131.49,14012.89
-48653.64,-62484.43,-96384.79,-96477.86,-94175.27,-60111.06,14015.59
-48620.45,-62474.00,-96412.37,-96496.03,-94195.55,-60131.42,14016.73
-48759.46,-62576.55,-96499.32,-96521.18,-94211.70,-60144.83,14016.60
-48811.31,-62603.28,-96483.98,-96509.30,-94199.79,-60136.07,14021.76
-48685.59,-62512.06,-96393.15,-96477.50,-94180.16,-60117.07,14020.42
-48611.78,-62469.79,-96394.80,-96477.63,-94183.07,-60121.03,14022.77
-48730.51,-62557.10,-96477.88,-96498.22,-94192.77,-60131.18,14028.09
-48815.63,-62609.80,-96490.17,-96505.09,-94192.33,-60135.00,14022.01
-48721.91,-62542.93,-96417.51,-96486.58,-94181.30,-60129.48,14021.99
-48608.58,-62462.24,-96386.55,-96479.38,-94175.54,-60130.84,14030.79
-48701.25,-62537.21,-96471.73,-96505.98,-94192.20,-60147.09,14035.69
-48805.88,-62601.78,-96496.77,-96508.05,-94192.17,-60137.88,14033.34
-48738.18,-62545.50,-96424.46,-96489.95,-94183.90,-60132.38,14029.21
-48616.96,-62466.35,-96378.30,-96488.88,-94186.76,-60149.82,14035.26
-48689.56,-62528.09,-96457.52,-96517.58,-94207.28,-60163.18,14040.78
-48822.31,-62615.32,-96510.56,-96534.45,-94215.66,-60177.40,14044.27
-48780.25,-62578.07,-96449.59,-96511.25,-94200.48,-60152.23,14042.44
-48638.20,-62482.13,-96380.65,-96490.91,-94190.31,-60138.82,14040.23
-48662.25,-62508.08,-96437.88,-96510.49,-94206.48,-60148.48,14041.34
-48795.67,-62598.14,-96500.13,-96527.34,-94211.52,-60156.63,14045.19
-48796.79,-62588.61,-96463.27,-96518.16,-94203.15,-60155.85,14045.03
-48661.47,-62494.47,-96392.16,-96496.05,-94190.77,-60145.86,14048.61
-48646.87,-62495.43,-96425.98,-96506.76,-94197.55,-60153.77,14050.31
-48785.12,-62591.52,-96502.65,-96524.82,-94203.88,-60164.34,14051.07
-48800.65,-62589.80,-96463.04,-96502.02,-94182.16,-60144.90,14053.44
-48669.78,-62502.88,-96386.73,-96478.91,-94172.27,-60137.95,14053.86
-48627.87,-62484.21,-96409.28,-96492.41,-94188.33,-60151.31,14054.08
-48755.81,-62574.67,-96490.55,-96514.18,-94199.48,-60158.85,14052.05
-48810.11,-62603.50,-96481.97,-96506.54,-94189.73,-60148.54,14052.41
-48702.57,-62525.76,-96402.60,-96481.26,-94180.19,-60135.76,14053.73
-48624.45,-62484.55,-96401.44,-96486.60,-94191.45,-60145.39,14056.30
-48732.88,-62565.23,-96485.41,-96503.56,-94200.26,-60154.00,14055.13
-48820.54,-62614.41,-96494.13,-96503.14,-94191.68,-60152.36,14050.49
-48724.92,-62540.74,-96411.27,-96475.06,-94176.75,-60135.06,14043.33
-48611.15,-62468.68,-96377.30,-96471.22,-94178.36,-60138.89,14046.22
-48704.36,-62544.34,-96468.36,-96505.87,-94203.01,-60163.65,14043.76
-48821.84,-62619.13,-96507.05,-96522.41,-94210.45,-60179.75,14034.79
-48748.01,-62555.42,-96421.42,-96494.65,-94188.70,-60163.50,14040.87
-48609.21,-62460.43,-96360.52,-96480.99,-94175.92,-60155.96,14055.89
-48669.63,-62511.48,-96436.71,-96513.69,-94197.73,-60176.48,14049.68
-48808.03,-62605.02,-96498.63,-96545.32,-94215.86,-60201.25,14046.66
-48770.14,-62563.52,-96436.13,-96517.42,-94190.88,-60180.53,14043.31
-48624.68,-62463.98,-96356.73,-96489.28,-94171.12,-60156.63,14030.41
-48646.71,-62489.15,-96415.79,-96514.92,-94192.77,-60177.55,14027.84
-48790.04,-62591.32,-96494.80,-96538.43,-94210.30,-60187.10,14036.67
-48796.29,-62592.68,-96463.27,-96522.27,-94203.93,-60176.19,14052.52
-48658.23,-62500.71,-96383.20,-96493.08,-94186.94,-60158.45,14066.89
-48635.70,-62496.41,-96417.78,-96502.47,-94194.63,-60165.13,14081.02
-48777.32,-62592.91,-96503.81,-96522.70,-94204.33,-60172.84,14088.93
-48806.42,-62599.81,-96472.14,-96506.23,-94189.38,-60157.41,14095.08
-48688.89,-62516.62,-96397.39,-96486.02,-94183.20,-60150.04,14096.73
-48637.51,-62495.68,-96412.37,-96497.41,-94198.30,-60164.93,14097.80
-48761.60,-62585.75,-96490.17,-96516.15,-94206.61,-60170.83,14099.03
-48830.63,-62626.16,-96491.56,-96514.36,-94199.63,-60170.31,14094.81
-48710.13,-62537.12,-96396.84,-96477.41,-94174.47,-60146.69,14098.38
-48616.03,-62480.07,-96380.36,-96470.22,-94173.20,-60147.56,14102.45
-48732.86,-62566.93,-96471.84,-96499.05,-94191.95,-60164.97,14097.22
-48826.20,-62625.05,-96490.73,-96509.15,-94198.48,-60168.23,14073.98
-48746.25,-62570.09,-96428.24,-96508.28,-94199.63,-60175.12,14040.29
-48638.18,-62496.75,-96407.01,-96516.69,-94211.39,-60190.36,14024.76
-48713.41,-62554.84,-96480.03,-96536.02,-94222.97,-60199.50,14005.63
-48804.41,-62599.84,-96496.84,-96526.63,-94200.98,-60181.33,13910.94
-48708.76,-62506.90,-96384.95,-96466.04,-94145.68,-60139.45,13791.94
-48528.41,-62371.58,-96277.63,-96411.77,-94094.63,-60106.54,13718.43
-48563.25,-62398.71,-96327.56,-96414.20,-94089.13,-60088.50,13711.14
-48641.89,-62430.16,-96323.77,-96374.05,-94038.77,-60045.25,13813.85
-48598.48,-62389.84,-96248.38,-96343.03,-94010.48,-60027.80,13909.58
-48486.83,-62327.21,-96210.63,-96353.70,-94033.14,-60047.87,14034.59
-48517.79,-62366.93,-96285.10,-96384.98,-94067.27,-60060.68,14197.13
-48684.91,-62490.29,-96385.46,-96431.26,-94103.97,-60097.78,14293.02
-48716.72,-62508.17,-96378.84,-96439.21,-94113.16,-60113.16,14300.22
-48613.12,-62443.08,-96334.54,-96443.73,-94128.65,-60128.85,14246.40
-48605.23,-62459.24,-96384.79,-96481.80,-94167.16,-60163.74,14181.69
-48757.07,-62574.51,-96489.59,-96528.95,-94204.98,-60199.15,14123.42
-48791.09,-62584.39,-96465.37,-96508.26,-94186.31,-60179.61,14105.89
-48664.06,-62492.91,-96373.37,-96472.38,-94162.89,-60155.52,14092.57
-48606.93,-62466.66,-96385.28,-96481.64,-94174.63,-60163.43,14080.84
-48742.54,-62568.16,-96481.16,-96513.13,-94197.36,-60181.55,14076.70
-48816.21,-62612.73,-96482.17,-96513.78,-94198.05,-60181.67,14078.29
-48707.42,-62524.62,-96401.08,-96485.91,-94182.47,-60163.09,14079.65
-48622.44,-62475.71,-96393.82,-96490.33,-94194.47,-60172.37,14073.69
-48726.09,-62557.52,-96475.60,-96516.75,-94213.88,-60189.89,14071.05
-48819.72,-62613.09,-96496.81,-96523.37,-94212.17,-60191.26,14069.57
-48741.08,-62548.61,-96424.06,-96499.98,-94197.36,-60177.06,14065.33
-48625.01,-62476.05,-96386.55,-96499.32,-94201.36,-60182.63,14066.69
-48704.92,-62542.77,-96466.70,-96531.08,-94220.24,-60205.92,14064.97
-48820.77,-62617.79,-96506.20,-96544.80,-94220.55,-60217.65,14066.18
-48770.59,-62572.84,-96442.99,-96522.67,-94201.09,-60203.89,14063.69
-48634.06,-62477.59,-96375.66,-96499.83,-94184.70,-60180.41,14061.88
-48675.64,-62513.49,-96437.65,-96520.38,-94197.34,-60189.91,14062.91
-48811.67,-62606.56,-96502.06,-96543.35,-94208.55,-60207.71,14057.77
-48778.05,-62570.38,-96440.55,-96511.66,-94180.91,-60188.39,14052.34
-48637.89,-62473.04,-96368.41,-96488.61,-94166.64,-60184.62,14048.21
-48647.00,-62492.23,-96422.12,-96507.99,-94185.60,-60189.51,14048.72
-48790.19,-62592.39,-96496.86,-96533.31,-94199.73,-60202.39,14048.94
-48805.61,-62596.44,-96468.36,-96524.26,-94192.86,-60198.43,14046.73
-48675.64,-62502.76,-96394.89,-96496.44,-94173.77,-60186.41,14041.43
-48636.19,-62484.99,-96408.70,-96500.66,-94179.09,-60194.09,14031.78
-48769.18,-62581.21,-96485.68,-96523.19,-94195.26,-60203.84,14030.93
-48816.75,-62603.34,-96468.02,-96513.64,-94185.80,-60191.66,14031.04
-48688.18,-62510.43,-96377.55,-96479.05,-94164.48,-60162.20,14023.51
-48622.22,-62476.32,-96385.34,-96488.55,-94180.81,-60170.27,14017.74
-48751.21,-62571.63,-96479.94,-96518.98,-94205.91,-60191.28,14016.60
-48822.09,-62611.57,-96478.42,-96514.77,-94201.83,-60185.20,14008.51
-48710.17,-62534.48,-96393.15,-96482.06,-94183.38,-60155.79,13996.17
-48607.02,-62466.89,-96375.58,-96475.96,-94188.73,-60147.20,13987.83
-48707.73,-62543.62,-96463.22,-96501.22,-94207.05,-60156.84,13979.65
-48809.66,-62607.48,-96487.31,-96513.20,-94207.86,-60162.89,13966.78
-48734.63,-62545.92,-96416.50,-96494.29,-94192.46,-60148.54,13957.01
-48603.00,-62457.37,-96357.65,-96480.67,-94181.28,-60135.98,13944.38
-48665.27,-62511.70,-96430.85,-96510.00,-94200.48,-60151.61,13931.24
-48789.07,-62591.79,-96476.77,-96522.83,-94200.62,-60149.97,13916.96
-48744.50,-62548.98,-96411.20,-96499.90,-94182.56,-60122.10,13905.74
-48614.82,-62461.16,-96357.41,-96489.37,-94177.75,-60122.59,13892.12
-48652.73,-62498.45,-96428.15,-96513.20,-94194.63,-60135.04,13873.55
-48788.29,-62590.78,-96491.25,-96524.95,-94196.93,-60135.55,13859.18
-48778.28,-62575.47,-96449.23,-96510.74,-94185.04,-60129.63,13849.65
-48641.64,-62478.84,-96381.91,-96485.46,-94171.41,-60108.44,13832.22
-48634.29,-62480.23,-96420.62,-96497.87,-94178.31,-60124.07,13824.80
-48775.10,-62581.75,-96500.48,-96523.32,-94195.77,-60129.70,13815.68
-48790.82,-62584.08,-96472.05,-96510.18,-94189.11,-60121.21,13807.43
-48654.88,-62483.61,-96385.26,-96474.10,-94167.80,-60101.29,13805.20
-48605.86,-62458.19,-96392.27,-96475.58,-94172.16,-60105.00,13805.40
-48745.55,-62564.97,-96483.45,-96509.38,-94195.86,-60128.58,13810.05
-48804.79,-62595.84,-96478.64,-96505.46,-94190.78,-60124.56,13815.14
-48684.69,-62502.72,-96394.95,-96472.45,-94169.30,-60108.91,13821.31
-48597.63,-62449.07,-96377.41,-96463.91,-94163.11,-60100.62,13837.05
-48725.37,-62548.94,-96475.65,-96500.63,-94192.39,-60125.90,13853.45
-48807.25,-62592.86,-96486.24,-96496.41,-94187.66,-60114.25,13868.92
-48705.12,-62511.86,-96396.16,-96464.45,-94168.48,-60094.52,13892.97
-48594.99,-62442.97,-96364.76,-96461.77,-94172.70,-60101.18,13923.73
-48696.78,-62525.23,-96457.81,-96494.96,-94199.45,-60121.81,13945.70
-48804.00,-62594.43,-96485.15,-96509.73,-94204.69,-60128.45,13967.76
-48729.50,-62530.28,-96412.84,-96489.70,-94188.86,-60120.42,13995.90
-48600.63,-62443.62,-96357.61,-96474.75,-94183.20,-60120.02,14021.88
-48665.67,-62501.91,-96433.94,-96502.94,-94204.66,-60134.21,14045.28
-48798.62,-62590.63,-96489.55,-96521.69,-94210.66,-60140.43,14066.80
-48765.09,-62561.05,-96434.92,-96507.90,-94199.32,-60133.23,14083.14
-48626.49,-62468.52,-96376.23,-96489.10,-94189.89,-60125.34,14097.98
-48656.21,-62501.67,-96442.05,-96511.07,-94206.23,-60138.53,14117.54
-48802.71,-62606.25,-96520.35,-96541.96,-94223.84,-60159.20,14124.67
-48795.06,-62590.11,-96474.88,-96523.16,-94204.09,-60147.69,14133.41
-48658.09,-62495.61,-96397.84,-96496.34,-94187.88,-60125.34,14144.09
-48643.21,-62493.35,-96427.92,-96505.71,-94195.52,-60134.06,14149.46
-48780.85,-62591.86,-96504.81,-96529.11,-94212.47,-60145.30,14157.62
-48814.98,-62610.43,-96483.58,-96523.73,-94210.72,-60140.83,14160.99
-48679.50,-62513.13,-96398.40,-96491.70,-94192.05,-60120.98,14164.08
-48624.25,-62481.75,-96411.07,-96494.06,-94197.53,-60121.47,14169.58
-48770.54,-62589.69,-96513.09,-96531.30,-94227.11,-60146.96,14176.95
-48831.21,-62621.81,-96509.38,-96524.87,-94222.23,-60146.57,14178.63
-48710.73,-62532.22,-96420.23,-96491.63,-94198.20,-60122.82,14177.35
-48629.28,-62487.12,-96413.38,-96497.17,-94207.66,-60127.02,14177.96
-48741.24,-62572.19,-96498.16,-96522.32,-94224.13,-60137.97,14183.72
-48825.46,-62622.01,-96504.81,-96520.77,-94217.72,-60137.05,14186.45
-48726.27,-62543.60,-96417.69,-96494.31,-94197.73,-60123.44,14189.18
-48610.50,-62470.48,-96383.63,-96489.66,-94201.13,-60124.60,14188.89
-48704.94,-62547.31,-96475.18,-96525.89,-94229.50,-60155.70,14187.88
-48814.62,-62613.61,-96504.03,-96530.90,-94224.85,-60161.98,14192.08
-48741.20,-62553.41,-96423.77,-96502.42,-94205.00,-60145.10,14192.08
-48611.60,-62468.74,-96377.34,-96492.88,-94203.05,-60135.55,14191.26
-48673.92,-62521.79,-96458.97,-96520.75,-94222.59,-60150.13,14191.19
-48804.29,-62605.07,-96512.52,-96532.94,-94221.61,-60161.17,14190.18
-48772.64,-62574.29,-96454.28,-96513.42,-94205.09,-60151.54,14190.36
-48632.52,-62479.76,-96387.16,-96492.21,-94192.95,-60133.79,14195.41
-48665.82,-62517.18,-96457.56,-96522.83,-94217.14,-60160.32,14192.96
-48805.25,-62610.03,-96519.70,-96538.32,-94219.98,-60163.79,14196.33
-48805.50,-62599.57,-96474.33,-96522.92,-94207.13,-60152.36,14197.89
-48680.93,-62518.50,-96408.63,-96505.35,-94202.77,-60146.22,14195.44
-48661.29,-62509.89,-96439.50,-96515.25,-94215.41,-60155.76,14199.35
-48797.68,-62601.96,-96514.34,-96531.64,-94225.48,-60162.80,14202.68
-48831.43,-62618.61,-96489.26,-96524.22,-94221.34,-60160.41,14203.10
-48702.66,-62526.21,-96408.75,-96498.20,-94207.15,-60149.26,14204.67
-48633.48,-62486.45,-96411.20,-96496.95,-94206.99,-60147.40,14205.05
-48769.92,-62585.31,-96508.70,-96528.84,-94227.44,-60159.20,14209.74
-48847.81,-62629.09,-96513.17,-96530.34,-94227.48,-60158.71,14211.55
-48731.25,-62543.93,-96423.84,-96497.71,-94206.68,-60138.28,14211.60
-48636.59,-62487.99,-96406.36,-96495.18,-94209.49,-60143.60,14208.24
-48753.15,-62575.38,-96497.66,-96529.76,-94232.38,-60170.16,14212.54
-48849.02,-62631.31,-96517.06,-96539.69,-94232.38,-60172.55,14218.19
-48751.88,-62552.27,-96429.73,-96508.55,-94204.17,-60151.34,14220.16
-48632.41,-62476.97,-96390.38,-96503.67,-94204.76,-60157.44,14222.97
-48715.27,-62544.52,-96473.45,-96534.37,-94230.68,-60184.80,14226.42
-48823.65,-62611.01,-96504.97,-96536.33,-94227.44,-60171.00,14227.00
-48763.30,-62557.17,-96435.68,-96508.77,-94207.30,-60153.26,14226.13
-48638.33,-62475.27,-96386.35,-96501.17,-94206.50,-60157.73,14225.66
-48693.00,-62525.67,-96463.78,-96530.79,-94227.42,-60174.85,14230.48
-48819.89,-62614.70,-96514.02,-96544.67,-94231.24,-60175.75,14235.27
-48795.80,-62577.98,-96464.52,-96526.50,-94213.96,-60166.60,14243.83
-48654.09,-62482.91,-96392.43,-96504.97,-94203.70,-60155.80,14242.33
-48660.13,-62504.24,-96446.68,-96529.47,-94225.20,-60173.82,14243.72
-48804.34,-62603.52,-96523.81,-96554.86,-94238.21,-60188.86,14243.16
-48813.68,-62597.22,-96488.55,-96539.95,-94227.62,-60179.32,14246.58
-48678.68,-62501.64,-96409.71,-96511.72,-94209.56,-60161.71,14251.09
-48648.66,-62488.73,-96428.73,-96518.59,-94214.32,-60169.02,14253.73
-48785.00,-62586.27,-96503.48,-96541.96,-94227.35,-60177.04,14255.92
-48821.48,-62603.34,-96485.50,-96530.88,-94219.55,-60169.89,14258.80
-48697.50,-62512.04,-96403.70,-96502.36,-94204.15,-60158.40,14262.69
-48633.57,-62475.92,-96407.01,-96502.85,-94208.17,-60166.80,14260.99
-48770.23,-62581.55,-96508.70,-96539.05,-94233.92,-60186.59,14260.59
-48835.90,-62619.33,-96505.17,-96532.62,-94224.87,-60172.10,14261.46
-48723.63,-62532.54,-96419.72,-96498.58,-94199.88,-60153.53,14264.35
-48642.02,-62486.40,-96419.43,-96509.91,-94216.76,-60166.96,14264.50
-48754.50,-62570.27,-96510.76,-96539.28,-94237.88,-60191.28,14265.84
-48842.29,-62619.80,-96518.54,-96536.31,-94228.56,-60182.43,14267.18
-48758.65,-62555.38,-96443.41,-96515.66,-94217.07,-60164.28,14276.04
-48646.40,-62486.71,-96411.30,-96518.05,-94221.74,-60178.40,14278.32
-48720.70,-62541.50,-96486.76,-96546.16,-94234.82,-60200.82,14275.17
-48839.01,-62616.75,-96525.60,-96554.73,-94233.99,-60196.55,14278.23
-48784.76,-62570.24,-96455.91,-96534.95,-94215.38,-60195.41,14278.61
-48643.00,-62473.26,-96393.08,-96512.20,-94201.24,-60182.94,14280.89
-48692.63,-62519.46,-96463.24,-96539.08,-94220.83,-60200.82,14281.11
-48824.75,-62608.04,-96517.98,-96550.59,-94225.98,-60207.17,14280.37
-48804.16,-62583.70,-96461.54,-96529.52,-94213.09,-60191.91,14286.85
-48668.71,-62490.54,-96391.76,-96511.05,-94204.48,-60184.33,14286.63
-48667.26,-62497.80,-96431.79,-96522.45,-94211.51,-60192.26,14283.21
-48807.51,-62601.67,-96511.21,-96549.95,-94230.13,-60210.39,14286.47
-48824.14,-62602.79,-96480.34,-96531.80,-94216.51,-60192.24,14291.55
-48691.89,-62511.55,-96400.26,-96503.79,-94201.67,-60175.12,14293.18
-48651.30,-62493.38,-96422.63,-96507.14,-94205.09,-60180.73,14295.08
-48790.21,-62593.49,-96513.60,-96536.53,-94221.97,-60197.02,14300.42
-48839.41,-62617.07,-96500.66,-96528.82,-94211.23,-60185.94,14299.08
-48716.79,-62524.33,-96413.69,-96496.52,-94189.82,-60168.79,14297.70
-48641.95,-62481.30,-96409.38,-96500.84,-94195.61,-60173.04,14297.76
-48761.65,-62571.02,-96497.55,-96532.48,-94215.20,-60194.95,14300.60
-48837.89,-62619.04,-96499.85,-96530.45,-94210.88,-60189.40,14306.32
-48746.34,-62547.64,-96429.16,-96510.43,-94201.80,-60181.55,14301.16
-48646.38,-62483.34,-96403.09,-96507.59,-94201.60,-60177.09,14304.09
-48746.54,-62565.35,-96490.48,-96540.55,-94225.18,-60200.13,14308.76
-48848.75,-62630.48,-96518.79,-96551.51,-94228.11,-60212.89,14303.57
-48769.20,-62564.92,-96441.16,-96522.12,-94205.83,-60189.25,14306.95
-48648.17,-62482.76,-96399.56,-96511.05,-94201.02,-60186.85,14309.61
-48717.86,-62540.16,-96472.56,-96540.55,-94222.93,-60209.29,14310.35
-48836.37,-62617.88,-96515.79,-96552.67,-94226.10,-60208.04,14308.56
-48797.19,-62582.67,-96462.03,-96533.42,-94214.41,-60197.14,14313.45
-48658.96,-62488.12,-96394.82,-96514.18,-94202.88,-60190.88,14315.02
-48688.60,-62516.51,-96452.38,-96531.17,-94214.84,-60199.79,14314.41
-48828.43,-62613.65,-96519.23,-96552.98,-94225.02,-60212.27,14317.57
-48816.70,-62594.92,-96471.38,-96533.02,-94211.57,-60196.69,14321.19
-48672.31,-62494.04,-96388.90,-96505.48,-94195.77,-60181.82,14321.05
-48663.86,-62501.87,-96434.84,-96524.98,-94213.54,-60197.63,14317.32
-48802.26,-62601.45,-96514.47,-96550.41,-94221.90,-60207.68,14314.84
-48817.35,-62600.57,-96480.19,-96532.46,-94201.78,-60189.91,14309.50
-48684.69,-62505.54,-96399.13,-96500.19,-94182.65,-60168.01,14308.65
-48652.48,-62496.75,-96426.25,-96521.29,-94203.28,-60192.96,14304.58
-48786.91,-62593.31,-96509.78,-96546.21,-94219.48,-60205.34,14304.58
-48833.00,-62612.80,-96489.28,-96533.67,-94209.70,-60196.71,14299.97
-48712.25,-62523.44,-96403.65,-96501.95,-94191.95,-60178.36,14294.86
-48627.13,-62471.76,-96392.32,-96500.05,-94191.50,-60175.95,14310.30
-48751.93,-62571.98,-96482.91,-96536.84,-94215.33,-60207.48,14318.35
-48837.55,-62620.98,-96498.76,-96540.18,-94217.31,-60214.48,14310.26
-48736.93,-62541.41,-96412.59,-96505.82,-94194.47,-60183.30,14312.07
-48616.99,-62460.99,-96370.75,-96489.44,-94181.40,-60176.88,14299.51
-48711.94,-62536.18,-96457.77,-96520.88,-94200.20,-60198.14,14285.58
-48826.63,-62610.50,-96501.73,-96538.01,-94210.27,-60213.12,14280.01
-48764.96,-62560.77,-96437.85,-96519.26,-94199.13,-60204.13,14299.95
-48636.30,-62478.31,-96386.84,-96505.91,-94197.87,-60188.71,14319.64
-48700.29,-62534.17,-96467.24,-96531.08,-94219.35,-60204.36,14331.49
-48828.39,-62617.05,-96512.73,-96544.91,-94224.58,-60217.30,14345.26
-48788.71,-62574.96,-96451.71,-96520.84,-94207.30,-60200.31,14349.42
-48651.16,-62480.77,-96384.54,-96500.79,-94195.92,-60185.67,14347.38
-48680.53,-62514.56,-96445.47,-96526.77,-94216.58,-60206.12,14350.33
-48827.63,-62617.27,-96523.75,-96551.53,-94229.32,-60220.98,14357.62
-48819.16,-62600.51,-96475.00,-96527.44,-94208.17,-60202.99,14354.85
-48682.57,-62506.52,-96401.98,-96507.61,-94197.80,-60196.11,14349.10
-48679.10,-62516.93,-96451.20,-96529.72,-94215.84,-60218.14,14352.90
-48814.96,-62612.40,-96526.70,-96547.84,-94221.38,-60225.75,14350.18
-48845.64,-62624.07,-96500.79,-96536.47,-94211.17,-60213.34,14343.67
-48725.55,-62539.44,-96421.29,-96513.89,-94200.09,-60197.20,14316.31
-48688.13,-62529.11,-96450.34,-96540.51,-94228.67,-60225.61,14287.23
-48821.53,-62624.80,-96540.76,-96569.03,-94245.61,-60241.77,14278.50
-48852.89,-62628.96,-96506.18,-96537.43,-94212.17,-60212.56,14224.18
-48704.96,-62508.26,-96389.80,-96477.88,-94155.91,-60164.99,14097.49
-48578.79,-62415.03,-96334.41,-96438.74,-94116.94,-60134.50,13995.23
-48661.04,-62471.27,-96389.84,-96439.08,-94106.59,-60133.97,13938.93
-48708.79,-62480.75,-96364.42,-96394.04,-94061.41,-60098.95,14000.39
-48575.28,-62358.73,-96234.31,-96320.23,-93997.22,-60031.44,14106.81
-48483.03,-62311.39,-96217.66,-96340.33,-94023.70,-60051.07,14215.78
-48587.48,-62401.64,-96318.96,-96391.36,-94068.52,-60091.57,14363.19
-48707.89,-62486.27,-96370.80,-96414.70,-94088.30,-60106.90,14515.92
-48684.40,-62475.43,-96347.95,-96427.68,-94112.30,-60124.31,14560.64
-48585.00,-62422.79,-96327.30,-96448.16,-94139.30,-60153.86,14536.43
-48670.32,-62502.09,-96433.58,-96504.59,-94188.05,-60198.97,14471.19
-48825.57,-62615.15,-96514.77,-96546.48,-94223.53,-60231.07,14403.31
-48805.52,-62592.13,-96468.47,-96534.32,-94215.62,-60226.48,14358.27
-48658.00,-62487.52,-96389.95,-96506.65,-94196.06,-60209.36,14350.31
-48671.70,-62507.21,-96439.86,-96523.19,-94207.84,-60220.98,14340.86
-48806.04,-62600.89,-96501.84,-96539.44,-94213.43,-60220.09,14331.87
-48807.20,-62591.79,-96459.91,-96526.09,-94199.95,-60213.77,14331.09
-48673.85,-62499.81,-96383.80,-96505.82,-94188.77,-60204.82,14327.38
-48664.26,-62508.21,-96430.43,-96532.53,-94213.90,-60228.74,14328.29
-48806.84,-62605.82,-96515.48,-96553.32,-94222.75,-60237.08,14326.91
-48844.71,-62619.75,-96493.73,-96546.10,-94212.87,-60233.57,14321.41
-48713.17,-62523.21,-96406.78,-96511.14,-94190.72,-60207.71,14320.63
-48654.25,-62493.78,-96412.15,-96520.40,-94200.77,-60213.18,14315.98
-48790.26,-62595.05,-96511.01,-96557.48,-94226.48,-60242.78,14315.80
-48849.11,-62622.57,-96499.72,-96542.99,-94209.83,-60225.79,14315.13
-48740.84,-62541.70,-96414.25,-96511.39,-94190.56,-60208.64,14310.17
-48646.38,-62490.31,-96395.45,-96510.13,-94192.80,-60216.76,14310.01
-48754.45,-62574.20,-96482.91,-96536.29,-94211.98,-60231.73,14306.37
-48840.37,-62619.26,-96494.84,-96536.53,-94206.38,-60232.27,14303.64
-48758.77,-62557.88,-96429.53,-96519.03,-94195.61,-60232.50,14303.86
-48646.36,-62486.38,-96395.91,-96508.05,-94192.93,-60212.42,14304.65
-48727.74,-62552.34,-96472.47,-96532.27,-94209.85,-60220.34,14300.51
-48840.66,-62625.61,-96510.25,-96542.14,-94212.29,-60227.64,14296.04
-48786.28,-62575.88,-96448.91,-96517.04,-94193.76,-60209.72,14293.25
-48662.07,-62496.50,-96396.99,-96514.59,-94196.10,-60215.84,14292.62
-48717.75,-62548.05,-96479.78,-96547.59,-94225.85,-60242.02,14287.17
-48834.22,-62621.70,-96519.95,-96545.67,-94217.34,-60235.82,14285.07
-48804.94,-62587.14,-96458.62,-96522.14,-94198.23,-60218.79,14279.81
-48667.70,-62494.74,-96391.88,-96506.91,-94194.74,-60219.17,14272.21
-48679.55,-62517.67,-96448.04,-96530.90,-94214.61,-60232.52,14265.89
-48817.95,-62611.21,-96517.34,-96549.97,-94219.75,-60236.88,14259.45
-48831.39,-62608.15,-96483.63,-96538.57,-94209.85,-60219.20,14255.63
-48690.01,-62506.85,-96395.45,-96507.77,-94187.61,-60197.20,14248.99
-48659.37,-62494.38,-96420.08,-96521.52,-94193.51,-60200.67,14242.69
-48799.87,-62593.09,-96504.48,-96552.16,-94209.18,-60212.47,14228.67
-48836.35,-62608.78,-96480.01,-96545.32,-94204.35,-60198.97,14214.99
-48717.52,-62526.57,-96407.02,-96525.42,-94192.91,-60184.11,14207.86
-48644.75,-62482.11,-96404.95,-96527.05,-94195.32,-60183.21,14192.84
-48775.89,-62579.43,-96502.91,-96557.66,-94220.11,-60196.73,14184.66
-48848.75,-62620.69,-96506.98,-96550.01,-94213.13,-60185.82,14172.75
-48745.78,-62540.83,-96425.94,-96517.55,-94191.41,-60164.32,14159.14
-48635.14,-62469.17,-96390.95,-96501.20,-94181.44,-60156.45,14144.32
-48740.75,-62555.82,-96483.24,-96535.91,-94213.83,-60182.34,14122.37
-48847.25,-62622.07,-96518.80,-96547.58,-94223.38,-60179.86,14101.47
-48773.81,-62564.59,-96454.19,-96526.70,-94213.07,-60160.90,14091.21
-48652.41,-62484.75,-96409.71,-96512.44,-94202.72,-60155.18,14082.58
-48722.93,-62543.60,-96487.83,-96535.26,-94220.94,-60170.60,14070.36
-48838.79,-62614.77,-96528.22,-96540.40,-94219.46,-60170.02,14059.00
-48788.38,-62568.72,-96456.96,-96513.58,-94201.00,-60152.25,14054.62
-48663.05,-62490.20,-96405.95,-96509.33,-94206.61,-60154.93,14048.94
-48695.42,-62522.12,-96468.25,-96527.84,-94216.96,-60160.10,14049.88
-48828.43,-62608.87,-96530.68,-96544.20,-94219.77,-60166.18,14050.87
-48807.89,-62584.39,-96477.14,-96525.47,-94199.50,-60151.20,14053.75
-48663.43,-62484.43,-96396.70,-96499.83,-94183.59,-60139.24,14059.18
-48664.64,-62495.95,-96441.16,-96519.03,-94200.64,-60155.34,14066.53
-48808.59,-62597.62,-96523.19,-96547.35,-94216.91,-60174.14,14078.65
-48817.75,-62593.49,-96481.26,-96525.47,-94197.89,-60161.06,14100.73
-48672.55,-62490.54,-96385.21,-96492.97,-94178.34,-60149.70,14125.50
-48627.05,-62465.66,-96401.22,-96493.30,-94180.16,-60146.11,14150.04
-48768.11,-62568.41,-96488.30,-96521.29,-94198.70,-60164.10,14171.21
-48820.95,-62599.28,-96478.66,-96518.47,-94195.77,-60162.78,14202.99
-48695.40,-62498.98,-96392.21,-96483.72,-94172.52,-60138.95,14230.51
-48623.36,-62458.80,-96390.15,-96490.48,-94180.21,-60145.35,14253.17
-48750.14,-62555.31,-96485.93,-96529.54,-94206.59,-60175.32,14278.99
-48834.49,-62609.18,-96502.00,-96534.70,-94209.07,-60182.34,14299.84
-48740.59,-62538.95,-96424.64,-96510.45,-94200.80,-60159.96,14320.92
-48630.18,-62467.91,-96393.08,-96501.58,-94196.20,-60154.96,14342.69
-48738.91,-62554.26,-96484.45,-96533.13,-94217.43,-60165.20,14360.95
-48842.36,-62617.36,-96507.70,-96538.25,-94214.19,-60168.12,14374.54
-48774.57,-62562.29,-96443.41,-96520.80,-94204.17,-60157.39,14386.28
-48655.36,-62486.29,-96404.28,-96513.98,-94205.63,-60156.86,14393.54
-48723.92,-62543.80,-96482.60,-96542.95,-94227.40,-60178.40,14402.44
-48847.21,-62625.00,-96529.16,-96555.78,-94233.07,-60183.57,14412.90
-48806.24,-62587.09,-96472.38,-96535.86,-94217.96,-60169.39,14422.22
-48672.64,-62495.86,-96411.63,-96517.53,-94208.02,-60163.12,14425.46
-48708.88,-62531.75,-96475.52,-96540.63,-94229.68,-60181.20,14430.55
-48850.50,-62629.16,-96544.53,-96559.66,-94244.12,-60187.88,14430.38
-48840.44,-62610.65,-96496.34,-96538.50,-94231.53,-60171.43,14430.24
-48695.09,-62509.51,-96414.16,-96507.81,-94212.53,-60154.09,14434.29
-48696.49,-62525.38,-96461.41,-96534.66,-94234.59,-60175.27,14441.64
-48837.82,-62623.44,-96543.22,-96561.70,-94248.63,-60191.52,14441.48
-48851.84,-62622.12,-96503.41,-96535.88,-94225.20,-60173.62,14444.17
-48722.64,-62530.63,-96421.51,-96510.74,-94208.17,-60162.91,14448.39
-48682.41,-62509.20,-96448.49,-96529.65,-94227.58,-60183.68,14450.36
-48810.80,-62603.28,-96532.53,-96554.48,-94238.46,-60196.13,14452.08
-48864.11,-62629.59,-96522.12,-96550.52,-94231.02,-60192.51,14446.60
-48740.37,-62537.95,-96431.48,-96519.91,-94209.72,-60176.73,14447.32
-48665.94,-62496.86,-96432.28,-96529.76,-94222.03,-60192.20,14448.21
-48785.50,-62587.88,-96522.41,-96565.26,-94247.11,-60212.49,14451.72
-48867.98,-62637.14,-96533.25,-96569.08,-94245.16,-60211.51,14451.68
-48776.18,-62569.55,-96455.71,-96543.71,-94230.81,-60192.31,14452.93
-48664.37,-62499.30,-96419.77,-96534.43,-94227.30,-60192.62,14455.23
-48763.66,-62576.46,-96504.34,-96564.65,-94246.93,-60210.97,14455.81
-48873.18,-62643.87,-96532.69,-96568.18,-94244.45,-60208.09,14461.71
-48799.69,-62587.03,-96459.93,-96546.55,-94230.64,-60194.95,14465.40
-48674.12,-62505.49,-96416.50,-96535.70,-94227.15,-60188.60,14464.22
-48737.87,-62554.24,-96491.45,-96554.33,-94241.59,-60200.38,14468.78
-48861.20,-62631.35,-96533.31,-96561.03,-94244.67,-60199.37,14467.10
-48809.93,-62587.21,-96461.84,-96535.17,-94225.77,-60186.00,14469.07
-48679.66,-62503.01,-96407.34,-96523.30,-94224.98,-60183.43,14466.83
-48712.90,-62542.17,-96473.79,-96552.09,-94247.47,-60197.07,14468.02
-48849.60,-62634.05,-96538.99,-96569.05,-94250.46,-60202.05,14468.37
-48839.36,-62611.23,-96489.10,-96549.63,-94235.40,-60189.45,14473.56
-48700.40,-62513.13,-96411.61,-96521.98,-94220.18,-60179.54,14476.84
-48678.63,-62506.94,-96442.66,-96535.30,-94232.76,-60192.82,14472.24
-48813.10,-62598.67,-96520.22,-96557.74,-94243.20,-60206.52,14480.38
-48843.72,-62608.38,-96493.98,-96552.31,-94235.31,-60212.63,14484.80
-48724.45,-62523.04,-96417.76,-96533.85,-94222.68,-60197.47,14486.81
-48671.08,-62499.36,-96429.05,-96541.67,-94228.96,-60196.51,14492.33
-48793.59,-62589.11,-96510.27,-96559.58,-94235.60,-60206.79,14496.09
-48841.89,-62612.20,-96490.63,-96544.71,-94219.04,-60192.69,14491.80
-48737.57,-62535.84,-96416.73,-96527.70,-94211.02,-60188.20,14495.58
-48660.89,-62494.76,-96418.36,-96536.71,-94221.25,-60199.64,14503.40
-48783.04,-62585.31,-96511.97,-96559.29,-94234.86,-60205.81,14509.21
-48874.73,-62638.68,-96524.53,-96562.20,-94234.28,-60208.76,14508.72
-48780.27,-62564.95,-96448.02,-96536.94,-94218.27,-60199.39,14507.47
-48673.70,-62499.83,-96419.01,-96536.16,-94223.17,-60198.21,14513.46
-48767.79,-62575.88,-96506.96,-96564.95,-94247.83,-60209.16,14516.59
